Datetime,Open,High,Low,Close,Volume
2019-05-28,22.0,22.0,21.5,21.5,825
2019-05-29,21.3,22.0,21.3,21.85,5727
2019-05-30,20.5,21.8,20.35,21.6,13161
2019-06-03,21.0,21.2,20.6,20.8,2333
2019-06-10,20.5,20.5,20.0,20.1,11974
2019-06-11,20.0,20.5,20.0,20.3,300
2019-06-12,20.05,20.65,20.0,20.05,7799
2019-06-13,20.0,20.55,19.9,20.5,7085
2019-06-14,19.8,20.6,19.75,20.0,8886
2019-06-17,19.8,19.85,18.5,18.9,15633
2019-06-18,19.0,19.4,18.35,18.85,8801
2019-06-19,18.1,18.1,16.05,17.45,61116
2019-06-20,17.0,18.05,16.35,17.5,1915
2019-06-21,17.5,17.55,16.8,17.35,4705
2019-06-24,17.3,17.3,16.85,17.0,6775
2019-06-25,17.05,18.0,17.0,18.0,5392
2019-06-26,17.55,19.35,17.5,18.3,5454
2019-06-27,17.75,18.5,17.2,18.05,7460
2019-06-28,18.0,19.9,18.0,19.15,13034
2019-07-01,19.75,19.75,18.75,19.0,1910
2019-07-02,19.45,19.45,18.8,18.8,1330
2019-07-03,18.5,18.5,18.2,18.2,275
2019-07-04,18.2,19.1,18.15,19.0,4166
2019-07-05,18.5,19.2,18.5,19.2,5703
2019-07-08,18.65,18.65,18.15,18.2,210
2019-07-09,18.1,18.1,18.1,18.1,100
2019-07-10,18.0,18.0,17.3,17.6,4530
2019-07-11,17.6,17.75,17.1,17.45,8873
2019-07-12,17.3,17.45,17.2,17.45,1201
2019-07-15,17.1,17.3,17.0,17.1,4905
2019-07-16,17.0,17.0,16.3,16.4,11025
2019-07-17,16.6,17.85,16.6,16.75,7292
2019-07-18,17.0,17.0,16.05,16.75,5756
2019-07-19,16.8,17.3,16.8,16.85,8579
2019-07-22,16.25,16.4,16.2,16.2,2482
2019-07-23,16.55,16.55,16.1,16.3,8475
2019-07-24,16.1,16.25,16.0,16.15,3431
2019-07-25,16.35,16.35,16.15,16.15,1575
2019-07-26,15.9,16.65,15.9,16.65,1576
2019-07-29,16.5,16.9,16.35,16.75,14290
2019-07-30,16.9,17.4,16.3,16.4,12058
2019-07-31,16.45,18.8,16.25,16.6,14221
2019-08-01,16.2,16.2,16.0,16.0,455
2019-08-02,15.75,15.75,15.7,15.7,2510
2019-08-05,15.65,16.35,14.5,15.1,40781
2019-08-06,15.65,15.7,15.1,15.1,551
2019-08-07,15.4,15.45,15.15,15.2,4150
2019-08-08,15.25,15.35,15.0,15.05,4131
2019-08-09,15.0,16.4,15.0,15.85,3249
2019-08-13,17.4,17.4,14.25,14.4,21862
2019-08-14,14.5,14.7,14.3,14.5,25731
2019-08-16,14.2,14.95,14.2,14.95,8875
2019-08-19,15.0,15.0,14.5,14.5,5760
2019-08-20,14.95,14.95,14.1,14.2,11818
2019-08-21,13.95,14.0,13.8,13.8,8110
2019-08-22,13.75,13.75,13.0,13.0,26300
2019-08-23,12.95,13.5,12.8,13.2,8163
2019-08-26,13.25,13.85,13.25,13.7,1775
2019-08-27,14.25,14.45,13.6,13.7,27228
2019-08-28,13.9,14.3,13.85,13.95,1440
2019-08-29,13.6,13.9,13.5,13.5,4064
2019-08-30,13.8,14.65,13.7,13.85,10246
2019-09-03,14.25,14.62,14.25,14.59,683
2019-09-04,14.28,14.5,14.06,14.5,6035
2019-09-05,15.0,15.0,14.41,14.5,234
2019-09-06,15.15,16.0,15.15,15.78,7905
2019-09-11,18.6,19.81,18.3,19.0,46063
2019-09-12,18.75,21.04,17.61,18.77,21334
2019-09-13,18.1,18.5,17.6,18.32,12682
2019-09-16,17.75,19.0,17.75,18.19,715
2019-09-17,18.0,18.0,17.5,17.5,7700
2019-09-18,15.15,18.6,15.15,18.08,5500
2019-09-19,20.95,20.95,17.65,18.13,8068
2019-09-20,17.65,18.5,17.51,17.89,4639
2019-09-23,17.3,19.14,17.3,17.78,5200
2019-09-24,17.45,18.45,17.3,17.6,666
2019-09-25,17.3,18.2,17.15,17.33,6388
2019-09-26,17.45,19.95,16.79,19.2,20665
2019-09-27,19.8,19.8,18.21,18.49,9521
2019-09-30,18.7,18.7,16.75,16.99,11449
2019-10-01,18.8,18.8,15.8,16.4,19768
2019-10-03,15.8,16.05,15.6,15.7,5980
2019-10-04,15.95,15.95,15.2,15.4,2813
2019-10-07,15.05,15.85,15.05,15.3,28746
2019-10-09,15.05,15.05,14.7,14.8,5011
2019-10-10,14.55,15.45,14.2,14.25,4865
2019-10-11,15.45,15.45,13.9,14.85,653
2019-10-14,14.25,14.65,14.25,14.4,2162
2019-10-15,14.35,16.25,14.35,15.6,7862891
2019-10-16,16.35,17.3,16.0,17.1,3735
2019-10-17,16.55,17.25,16.5,16.8,4064
2019-10-18,16.6,16.85,16.6,16.75,675
2019-10-22,16.6,16.95,16.6,16.6,3031
2019-10-23,16.65,16.95,16.65,16.8,3600
2019-10-24,17.0,17.0,17.0,17.0,100
2019-10-25,16.35,17.05,16.05,16.4,705
2019-10-29,16.35,16.35,15.9,16.1,5225
2019-10-30,16.2,16.75,15.6,15.7,2079
2019-10-31,18.5,18.5,15.5,16.25,9440
2019-11-01,15.95,16.1,15.95,16.05,2006
2019-11-04,15.85,15.95,15.75,15.85,5725
2019-11-05,16.1,16.1,16.1,16.1,15
2019-11-06,15.6,16.5,15.6,15.75,3343
2019-11-07,15.4,15.65,15.4,15.65,319
2019-11-08,15.5,15.8,15.3,15.8,813
2019-11-13,15.85,15.85,15.05,15.05,6554
2019-11-14,16.6,16.6,14.7,15.25,4326
2019-11-15,13.9,15.4,13.9,15.4,688
2019-11-18,14.95,15.05,14.6,14.7,3916
2019-11-19,14.75,15.45,14.65,14.65,186
2019-11-20,14.35,14.8,14.25,14.8,3021
2019-11-21,14.65,14.95,14.6,14.95,380
2019-11-22,14.5,14.5,14.1,14.2,4278
2019-11-25,14.55,14.6,14.15,14.25,3748
2019-11-26,14.35,14.65,14.15,14.15,2735
2019-11-27,14.25,14.25,14.15,14.15,101
2019-11-28,14.1,14.45,14.1,14.45,270
2019-11-29,14.6,14.6,14.4,14.4,400
2019-12-02,14.42,14.6,14.25,14.6,2530
2019-12-03,14.14,14.3,14.1,14.1,1726
2019-12-04,14.34,14.55,14.1,14.55,8305
2019-12-05,14.05,14.7,14.05,14.35,182
2019-12-06,14.75,14.75,13.84,13.99,7972
2019-12-09,14.24,14.24,13.52,13.83,11196
2019-12-10,14.2,14.2,13.41,13.41,3403
2019-12-11,13.21,13.25,13.21,13.21,4059
2019-12-12,13.25,13.25,13.25,13.25,25
2019-12-13,13.69,13.69,13.26,13.5,7221
2019-12-16,13.0,13.44,13.0,13.44,2311
2019-12-17,14.85,15.05,14.15,14.2,9029
2019-12-18,13.85,14.15,13.65,13.91,1641
2019-12-19,13.91,14.05,13.51,14.05,5162
2019-12-20,14.05,14.19,13.62,13.62,1460
2019-12-23,13.99,13.99,13.56,13.72,1825
2019-12-24,13.8,14.55,12.7,13.11,31636
2019-12-26,13.27,13.27,12.91,13.05,4204
2019-12-27,13.0,14.21,13.0,14.0,10396
2019-12-30,14.61,14.61,13.55,13.66,2552
2019-12-31,13.97,14.1,13.69,13.94,1765
2020-01-01,14.05,14.4,14.0,14.1,2769
2020-01-02,14.4,15.6,14.4,15.1,4565
2020-01-03,15.0,15.0,14.4,14.58,1047
2020-01-06,14.25,14.5,14.25,14.45,2601
2020-01-07,14.5,14.51,14.5,14.51,26
2020-01-08,14.81,14.99,14.5,14.91,3639
2020-01-09,14.75,14.75,14.5,14.52,1150
2020-01-10,15.03,16.0,14.7,14.96,10258
2020-01-13,13.13,15.36,13.13,14.8,3480
2020-01-14,14.85,15.3,14.8,15.2,1800
2020-01-15,15.7,15.95,15.17,15.2,1134
2020-01-16,15.15,15.9,15.15,15.34,871
2020-01-17,16.05,16.67,15.8,16.05,5974
2020-01-20,13.5,18.75,13.5,15.61,9180
2020-01-21,16.99,16.99,15.8,15.9,8223
2020-01-22,16.2,16.2,15.9,15.93,4728
2020-01-23,15.55,15.75,15.38,15.75,1655
2020-01-24,15.5,15.65,15.47,15.65,595
2020-01-27,15.65,15.75,15.57,15.7,1425
2020-01-28,15.2,15.42,15.2,15.31,824
2020-01-29,15.2,15.2,14.8,14.9,2955
2020-01-30,14.4,14.55,14.4,14.5,473
2020-01-31,14.6,14.65,14.05,14.35,5566
2020-02-01,14.4,14.4,13.75,13.75,2878
2020-02-03,13.75,13.75,13.75,13.75,1
2020-02-04,14.45,14.85,14.45,14.54,321
2020-02-05,14.5,14.55,14.0,14.45,851
2020-02-06,14.78,15.2,14.74,14.74,2315
2020-02-07,15.01,15.02,14.5,14.5,525
2020-02-10,14.47,14.56,14.47,14.52,1737
2020-02-11,14.46,14.46,14.1,14.11,4585
2020-02-12,14.18,14.18,13.6,13.66,13815
2020-02-13,13.74,14.12,13.51,14.12,3215
2020-02-14,14.12,14.12,13.39,13.45,3223
2020-02-17,13.51,13.71,13.51,13.53,504
2020-02-18,13.71,13.71,13.5,13.5,415
2020-02-19,13.71,14.24,13.71,14.24,250
2020-02-20,14.69,14.84,14.52,14.52,3852
2020-02-24,14.75,14.75,14.0,14.0,15389
2020-02-25,13.81,13.81,13.02,13.02,520
2020-02-26,13.59,14.0,13.59,13.9,2260
2020-02-27,13.98,15.0,13.98,14.74,590
2020-02-28,13.87,13.87,13.0,13.44,6829
2020-03-02,13.4,13.54,12.77,12.83,10903
2020-03-03,12.81,13.31,12.69,12.75,12896
2020-03-04,12.59,12.95,12.49,12.5,5904
2020-03-05,12.5,12.52,12.48,12.48,2230
2020-03-06,12.25,13.3,11.76,12.82,5201
2020-03-09,12.2,13.1,12.2,12.61,1254
2020-03-11,12.46,12.98,12.46,12.46,6220
2020-03-12,12.25,12.99,12.0,12.0,7979
2020-03-13,10.52,12.25,10.4,11.45,64352
2020-03-16,11.5,12.5,11.0,12.05,14493
2020-03-17,11.5,12.06,11.4,11.65,5351
2020-03-18,11.45,11.67,11.0,11.27,3340
2020-03-19,11.0,12.05,10.45,12.05,7177
2020-03-20,12.35,12.35,11.7,11.88,3508
2020-03-23,9.7,10.47,9.6,10.2,37741
2020-03-24,10.2,10.9,10.0,10.01,16598
2020-03-25,9.85,10.65,9.75,10.24,1679
2020-03-26,10.4,11.6,10.0,11.5,7023
2020-03-27,10.5,11.5,9.75,11.1,8403
2020-03-30,10.22,10.95,10.22,10.95,2080
2020-03-31,11.25,11.7,10.99,11.34,2363
2020-04-03,11.48,11.55,10.5,10.5,1080
2020-04-07,11.54,11.54,11.54,11.54,80
2020-04-08,13.0,13.84,13.0,13.84,1836
2020-04-09,16.45,16.45,13.3,14.43,11912
2020-04-13,14.1,14.13,13.25,14.13,8031
2020-04-15,13.14,13.99,13.14,13.99,2915
2020-04-16,12.67,14.04,12.67,13.04,3976
2020-04-17,13.5,13.5,13.5,13.5,525
2020-04-20,13.06,13.5,13.06,13.29,18998
2020-04-21,12.65,13.0,12.6,12.81,2458
2020-04-22,12.95,12.95,12.35,12.5,21630
2020-04-23,12.75,13.2,12.75,13.0,10211
2020-04-24,13.0,13.0,12.56,12.72,19375
2020-04-27,12.5,12.85,12.4,12.61,21209
2020-04-28,12.75,12.85,12.6,12.85,2777
2020-04-29,12.6,12.6,12.6,12.6,150
2020-04-30,12.5,12.75,12.5,12.55,1875
2020-05-04,12.55,12.94,12.5,12.94,2572
2020-05-05,12.6,12.6,12.5,12.5,815
2020-05-06,12.45,12.85,12.45,12.85,120
2020-05-07,12.5,13.25,12.02,12.59,4338
2020-05-08,12.9,12.95,10.67,12.1,11893
2020-05-11,12.05,12.4,12.05,12.4,456
2020-05-12,11.99,12.29,11.99,12.29,951
2020-05-13,12.1,12.25,12.05,12.12,1300
2020-05-15,12.25,12.25,11.95,12.0,4231
2020-05-18,12.0,12.0,12.0,12.0,1000
2020-05-19,12.28,12.28,11.95,12.25,7950
2020-05-21,11.65,11.96,11.4,11.89,2405
2020-05-26,11.75,11.95,11.52,11.9,1111
2020-05-28,12.0,12.35,11.75,11.81,1489
2020-05-29,11.81,11.9,11.0,11.9,6375
2020-06-01,11.94,11.95,11.94,11.95,1500
2020-06-03,12.4,12.55,11.8,11.8,948
2020-06-04,11.75,11.89,11.75,11.89,1025
2020-06-05,9.67,12.24,9.67,12.23,7629
2020-06-08,12.6,12.75,11.9,12.02,8627
2020-06-09,12.2,12.45,11.6,12.0,3499
2020-06-10,12.2,12.93,12.0,12.0,2098
2020-06-11,11.95,12.25,11.95,12.05,48360
2020-06-12,11.9,12.25,11.7,12.25,3879
2020-06-15,12.25,12.3,11.95,12.1,1986
2020-06-16,12.0,12.0,11.8,11.92,2081
2020-06-17,11.9,12.0,11.8,12.0,1489
2020-06-18,11.95,12.74,11.95,12.7,11764
2020-06-19,12.75,14.8,12.45,14.14,33433
2020-06-22,14.2,15.4,13.9,14.05,17517
2020-06-23,14.4,15.05,14.4,14.6,1723
2020-06-24,15.0,16.5,14.65,15.81,7447052
2020-06-25,16.15,16.5,15.0,15.5,24528
2020-06-26,15.4,15.7,14.85,14.9,17232
2020-06-29,14.6,16.39,14.5,16.26,41389
2020-06-30,16.46,17.7,15.65,16.1,41747
2020-07-01,16.0,16.25,15.25,16.0,6755
2020-07-02,16.0,16.65,16.0,16.35,11028
2020-07-03,15.2,16.5,15.2,15.7,11085
2020-07-06,13.65,16.0,13.65,15.5,22929
2020-07-07,15.55,15.6,14.8,15.5,8710
2020-07-08,15.45,16.0,15.0,15.1,7593
2020-07-09,15.4,16.0,15.1,15.35,2182
2020-07-10,15.25,15.4,14.55,15.0,3023
2020-07-13,15.0,15.1,14.6,15.0,242
2020-07-14,14.75,14.9,14.5,14.75,2000
2020-07-15,15.25,15.25,15.0,15.15,550
2020-07-16,14.8,14.8,13.95,14.25,4165
2020-07-17,14.45,14.45,14.2,14.2,90
2020-07-20,14.7,14.85,14.5,14.5,5385
2020-07-21,14.65,14.65,14.0,14.35,750
2020-07-22,14.2,14.55,13.2,14.45,1481
2020-07-23,13.75,17.3,13.75,17.25,47985
2020-07-24,16.9,16.9,15.8,16.1,30048
2020-07-27,16.15,16.8,15.8,16.0,9203
2020-07-28,16.05,16.15,15.8,15.85,6745
2020-07-29,15.65,17.35,15.5,16.4,16442
2020-07-30,16.45,16.55,15.65,16.0,15386
2020-07-31,16.2,16.9,16.05,16.35,2131
2020-08-03,15.85,16.2,15.25,15.9,1851
2020-08-04,16.0,16.4,16.0,16.1,740
2020-08-05,17.0,17.0,16.15,16.25,2361
2020-08-06,16.4,16.5,15.95,16.05,11393
2020-08-07,17.25,17.25,15.8,16.05,995
2020-08-10,15.85,15.85,15.8,15.85,6593
2020-08-11,16.05,16.05,15.6,15.85,2818
2020-08-12,15.7,15.9,15.3,15.7,8213
2020-08-13,16.15,16.15,15.6,15.6,651
2020-08-14,15.7,16.95,15.7,16.0,22357
2020-08-17,15.95,16.2,15.45,15.7,7472
2020-08-18,15.0,16.55,15.0,15.9,13364
2020-08-19,15.9,15.9,15.7,15.7,1222
2020-08-20,15.7,15.9,15.5,15.6,15756
2020-08-21,15.95,16.25,15.6,15.6,8291
2020-08-24,16.0,16.0,15.3,15.45,7944
2020-08-25,15.35,15.35,15.2,15.2,6612
2020-08-26,15.0,15.5,14.75,15.4,7548
2020-08-27,15.15,15.4,14.95,15.3,2587
2020-08-28,15.2,15.5,15.1,15.1,3604
2020-08-31,15.0,15.05,14.25,14.45,7474
2020-09-01,14.4,15.2,13.85,14.45,3349
2020-09-02,14.15,14.45,14.0,14.42,2206
2020-09-03,14.25,14.3,14.15,14.3,1735
2020-09-04,14.0,14.5,13.85,14.0,4240
2020-09-07,14.05,14.2,13.85,13.85,2082
2020-09-08,14.2,14.2,13.9,13.9,2
2020-09-09,13.65,14.0,13.55,14.0,2314
2020-09-10,14.15,14.38,13.83,14.05,5793
2020-09-11,13.9,14.15,13.7,14.04,2845
2020-09-14,15.0,15.0,13.75,13.85,4046
2020-09-15,14.0,14.0,13.5,13.52,3082
2020-09-16,13.84,15.74,13.84,14.77,36632
2020-09-17,14.35,14.5,14.04,14.29,3598
2020-09-18,14.09,14.95,14.09,14.55,1744
2020-09-21,14.4,14.8,13.75,14.1,3891
2020-09-22,13.6,14.0,13.25,14.0,3867
2020-09-23,13.95,13.95,13.65,13.65,1550
2020-09-24,14.15,14.2,13.52,13.52,1089
2020-09-25,14.0,14.1,13.5,14.1,777
2020-09-28,14.2,14.2,13.76,13.76,6000
2020-09-29,14.0,14.0,13.62,13.74,8529
2020-09-30,13.62,14.08,13.61,13.65,1307
2020-10-01,13.79,13.9,13.26,13.38,9390
2020-10-05,13.3,13.4,13.11,13.24,3139
2020-10-06,13.67,13.67,13.3,13.35,2476
2020-10-07,13.31,13.32,13.27,13.28,596
2020-10-08,13.25,14.0,13.12,13.5,5106
2020-10-09,13.79,13.79,13.22,13.6,632
2020-10-12,13.3,13.3,13.15,13.15,3000
2020-10-13,13.11,13.21,13.11,13.21,1450
2020-10-14,12.79,12.93,12.5,12.83,9635
2020-10-15,12.95,13.45,12.75,12.86,15232
2020-10-16,12.85,13.0,12.79,12.88,960
2020-10-19,13.05,13.05,12.75,12.8,229
2020-10-20,12.89,12.89,12.89,12.89,50
2020-10-21,13.0,13.0,12.79,12.79,1300
2020-10-22,13.2,13.2,12.7,12.7,1351
2020-10-23,13.0,13.15,12.95,12.95,3767
2020-10-26,13.26,13.37,12.89,13.0,6336
2020-10-27,12.96,13.15,12.6,12.6,3186
2020-10-28,12.9,12.9,12.5,12.73,15134
2020-10-29,12.75,12.8,12.59,12.59,2030
2020-10-30,12.7,12.7,12.7,12.7,1001
2020-11-02,12.45,12.7,12.22,12.7,14404
2020-11-03,12.39,12.65,12.39,12.41,7088
2020-11-04,12.6,12.89,12.32,12.41,2070
2020-11-05,12.45,12.78,12.39,12.72,3772
2020-11-06,12.69,12.96,12.5,12.61,796
2020-11-09,12.49,12.61,12.35,12.35,2215
2020-11-10,12.25,12.71,12.25,12.42,1082
2020-11-11,12.54,12.65,12.45,12.49,1217
2020-11-12,12.39,12.75,12.39,12.66,1026
2020-11-13,12.66,12.66,12.5,12.66,281
2020-11-14,11.85,12.45,11.85,12.45,1004
2020-11-17,12.75,12.94,12.41,12.59,3625
2020-11-18,12.61,13.01,12.28,12.7,2178
2020-11-19,12.64,13.6,12.42,12.86,10209
2020-11-20,13.8,13.8,13.0,13.48,15100
2020-11-23,13.4,14.0,13.4,13.6,1513
2020-11-24,13.45,13.49,13.25,13.25,753
2020-11-25,13.45,13.45,13.25,13.25,1190
2020-11-26,13.1,13.4,12.9,13.14,305
2020-11-27,13.4,13.5,13.2,13.5,4840
2020-12-01,13.15,14.95,13.1,14.31,17876
2020-12-02,14.5,15.0,14.17,14.44,18626
2020-12-03,14.55,15.0,14.45,14.71,11015
2020-12-04,14.8,14.8,13.95,14.01,7517
2020-12-07,14.4,15.0,14.24,14.75,6267
2020-12-08,14.8,14.98,14.3,14.66,5511
2020-12-09,14.75,14.95,14.69,14.7,5757
2020-12-10,14.49,14.49,14.0,14.1,1150
2020-12-11,14.34,14.6,14.29,14.49,6567
2020-12-14,14.5,14.75,14.14,14.28,4946
2020-12-15,14.5,14.6,14.49,14.6,333
2020-12-16,14.34,14.77,14.2,14.49,2535
2020-12-17,14.6,16.9,14.6,16.09,46943
2020-12-18,16.8,16.8,14.65,15.61,28096
2020-12-21,16.25,16.44,15.05,15.35,13227
2020-12-22,15.57,15.57,14.3,15.3,5387
2020-12-23,15.1,15.45,15.0,15.28,2763
2020-12-24,16.2,16.5,15.45,15.69,15860
2020-12-28,15.9,15.95,15.18,15.6,14358
2020-12-29,15.95,15.95,15.15,15.21,7245
2020-12-30,15.15,15.6,15.15,15.4,1977
2020-12-31,15.35,17.0,15.1,16.22,31021
2021-01-01,17.4,17.4,16.15,16.2,8788
2021-01-04,16.5,16.65,16.1,16.35,20434
2021-01-05,16.1,16.25,15.55,15.95,56092
2021-01-06,15.9,16.15,15.5,15.5,13671
2021-01-07,15.9,16.0,15.5,15.65,16085
2021-01-08,15.7,16.0,15.55,15.6,13114
2021-01-11,15.75,15.8,14.9,14.9,9757
2021-01-12,14.95,15.15,14.85,14.85,5326
2021-01-13,15.15,15.25,14.5,14.8,2077
2021-01-14,14.7,15.15,14.7,15.0,2267
2021-01-15,14.8,16.75,14.55,15.7,72446
2021-01-18,16.0,16.0,15.15,15.5,9755
2021-01-19,15.35,15.5,15.25,15.35,9200
2021-01-20,15.75,16.45,15.7,15.85,42021
2021-01-21,15.95,15.95,15.25,15.3,24736
2021-01-22,15.25,15.4,14.55,14.6,4768
2021-01-25,14.7,14.75,14.7,14.75,536
2021-01-27,13.85,14.8,13.85,14.7,3219
2021-01-28,14.5,14.75,14.45,14.65,554
2021-01-29,14.65,15.0,14.5,14.7,1812
2021-02-01,14.65,14.65,14.5,14.51,1270
2021-02-02,14.85,14.85,14.55,14.7,1115
2021-02-03,14.76,14.76,14.55,14.57,3898
2021-02-04,14.61,15.44,14.45,15.1,10501
2021-02-05,15.26,15.26,14.6,14.79,2760
2021-02-08,14.84,14.86,14.6,14.65,5391
2021-02-09,14.5,14.66,14.5,14.64,2206
2021-02-10,14.54,14.77,14.29,14.4,3595
2021-02-11,14.45,14.75,14.45,14.56,1899
2021-02-12,14.49,14.71,14.26,14.31,10383
2021-02-15,14.39,14.55,14.22,14.31,1701
2021-02-16,14.45,14.5,14.2,14.41,764
2021-02-17,14.5,14.5,14.34,14.34,558
2021-02-18,14.46,14.46,14.09,14.19,2240
2021-02-19,14.51,14.65,14.15,14.15,13663
2021-02-22,14.14,14.14,13.85,14.04,3117
2021-02-23,14.04,14.16,13.9,14.0,854
2021-02-24,14.25,15.01,14.07,14.61,13488
2021-02-25,14.81,14.81,14.4,14.55,41153
2021-02-26,14.34,14.6,14.25,14.5,3734
2021-03-01,14.8,14.86,14.34,14.52,5078
2021-03-02,14.4,15.65,14.2,15.4,40046
2021-03-03,15.45,18.1,15.45,16.51,132823
2021-03-04,16.8,16.8,15.9,15.95,5638
2021-03-05,16.2,17.38,15.75,16.88,63913
2021-03-08,17.45,17.5,16.8,16.95,30436
2021-03-09,16.86,20.34,16.86,18.69,142679
2021-03-10,19.2,19.45,17.75,18.05,56002
2021-03-12,19.0,19.0,16.9,17.14,36525
2021-03-15,17.25,17.25,16.5,16.5,12608
2021-03-16,17.25,17.75,16.6,16.74,7393
2021-03-17,18.0,18.0,16.15,16.32,29687
2021-03-18,15.3,16.75,15.3,15.99,5890
2021-03-19,17.9,17.9,15.03,15.95,8246
2021-03-22,15.2,16.1,15.2,15.79,6022
2021-03-23,16.25,16.25,15.8,16.06,12598
2021-03-24,15.25,16.0,15.2,15.21,3495
2021-03-25,15.5,17.65,15.09,16.0,23386
2021-03-26,17.0,17.0,15.55,16.16,11937
2021-03-30,17.25,17.25,16.24,16.91,5658
2021-03-31,17.15,17.3,16.6,16.65,4202
2021-04-01,18.0,18.0,15.0,16.7,4444
2021-04-05,16.6,16.6,15.7,16.0,4312
2021-04-06,16.25,16.25,15.9,15.95,1962
2021-04-07,16.15,16.25,15.85,16.0,10479
2021-04-08,15.05,16.2,15.05,15.7,3535
2021-04-09,15.6,16.0,15.6,15.8,5705
2021-04-12,15.25,15.4,14.95,15.0,2942
2021-04-13,15.2,15.2,15.1,15.1,806
2021-04-15,15.1,15.3,14.7,15.1,3347
2021-04-16,15.0,15.2,14.55,14.8,6966
2021-04-19,14.55,14.65,14.15,14.25,1858
2021-04-20,14.65,16.6,14.25,14.25,5893
2021-04-22,14.3,14.7,14.3,14.65,1742
2021-04-23,14.7,14.9,14.7,14.9,100
2021-04-26,14.9,14.9,14.5,14.55,2610
2021-04-27,14.75,15.15,14.1,15.0,3969
2021-04-28,15.3,15.8,14.95,15.1,23029
2021-04-29,15.1,15.25,14.4,14.75,3284
2021-04-30,15.0,16.9,14.7,14.7,4586
2021-05-03,14.5,16.6,14.0,14.83,10166
2021-05-04,14.92,16.8,14.5,15.85,21978
2021-05-05,16.85,16.85,15.82,16.09,13555
2021-05-06,16.08,16.08,15.3,15.65,11290
2021-05-07,15.82,17.07,15.55,16.65,36778
2021-05-10,16.99,17.28,15.4,16.71,12274
2021-05-11,16.71,17.2,16.35,16.62,34071
2021-05-12,16.8,16.82,16.0,16.22,4792
2021-05-14,16.65,16.65,15.75,16.13,5082
2021-05-17,16.59,18.0,16.05,16.25,1500
2021-05-18,16.32,16.5,16.17,16.29,12990
2021-05-19,15.9,16.47,15.87,16.16,9222
2021-05-20,17.29,17.29,15.75,16.27,18965
2021-05-21,16.53,16.77,16.0,16.67,7962
2021-05-24,17.8,17.8,16.38,16.57,13075
2021-05-25,16.77,16.92,16.58,16.7,8650
2021-05-26,16.92,18.4,16.73,17.46,54639
2021-05-27,18.7,18.7,17.05,17.38,40599
2021-05-28,17.5,17.63,17.0,17.06,14352
2021-05-31,18.58,19.8,18.1,18.48,180255
2021-06-01,18.6,18.6,17.4,17.8,49198
2021-06-02,17.75,19.45,17.75,18.85,35119
2021-06-03,18.5,19.4,18.4,18.75,24372
2021-06-04,19.0,20.2,18.25,18.45,49754
2021-06-07,18.35,18.75,18.2,18.3,14950
2021-06-08,18.9,18.9,18.05,18.2,34623
2021-06-09,18.5,19.55,18.0,18.3,97572
2021-06-10,18.45,19.4,18.25,18.7,37143
2021-06-11,19.1,20.4,18.85,20.0,94774
2021-06-14,19.95,20.2,19.05,19.25,56819
2021-06-15,19.2,20.85,19.0,20.2,74953
2021-06-16,20.5,20.5,19.2,19.65,39840
2021-06-17,20.1,20.1,19.15,19.3,28721
2021-06-18,19.25,19.65,15.5,18.95,51388
2021-06-21,18.35,19.15,17.8,18.8,12822
2021-06-22,19.0,19.6,18.9,18.95,37981
2021-06-23,19.1,19.75,18.8,18.95,24927
2021-06-24,19.25,19.3,18.6,18.75,18856
2021-06-25,18.65,22.25,18.6,20.5,332441
2021-06-28,20.95,21.25,19.8,19.95,107154
2021-06-29,20.4,20.4,19.65,19.75,11758
2021-06-30,20.25,20.65,19.7,20.3,42249
2021-07-01,20.3,21.2,20.05,20.2,18199
2021-07-02,20.95,20.95,19.25,20.0,39765
2021-07-05,20.45,21.65,19.8,20.75,83764
2021-07-06,20.95,21.6,20.4,20.55,83542
2021-07-07,20.95,24.65,20.95,24.65,558792
2021-07-08,25.3,25.3,22.6,22.9,170669
2021-07-09,21.1,23.8,21.1,23.0,67853
2021-07-12,23.45,23.7,22.4,22.5,8522
2021-07-13,22.8,23.05,21.6,21.85,31345
2021-07-14,21.85,22.35,21.35,21.9,27201
2021-07-15,22.2,22.7,20.6,20.75,170677
2021-07-16,21.25,21.7,20.55,20.75,32408
2021-07-19,20.85,21.2,19.95,20.15,32000
2021-07-20,20.85,20.9,18.8,20.7,70552
2021-07-22,20.85,21.45,20.65,21.05,42464
2021-07-23,21.2,21.8,20.55,20.6,27434
2021-07-26,20.7,20.8,20.0,20.2,29529
2021-07-27,20.4,23.9,19.85,22.15,209576
2021-07-28,22.25,23.4,21.9,23.0,69605
2021-07-29,23.25,24.0,22.6,22.8,90592
2021-07-30,22.6,25.75,22.4,24.75,289312
2021-08-02,27.6,27.6,25.1,25.5,248085
2021-08-03,25.85,25.85,24.25,24.4,62281
2021-08-04,24.9,24.95,22.8,23.0,71109
2021-08-05,22.8,24.1,21.55,22.65,52525
2021-08-06,22.95,23.4,22.5,22.75,22189
2021-08-09,22.75,23.5,22.4,22.7,30601
2021-08-10,22.7,22.8,20.6,21.1,91444
2021-08-11,20.1,21.1,19.0,20.4,41041
2021-08-12,20.75,21.65,20.65,20.9,30202
2021-08-13,21.1,22.4,21.05,21.25,38610
2021-08-16,20.85,21.15,20.15,20.25,29974
2021-08-17,20.5,20.75,19.5,19.8,19787
2021-08-18,20.0,20.15,19.45,19.6,17778
2021-08-20,19.5,19.55,17.9,18.5,46344
2021-08-23,19.15,19.5,18.0,18.55,23622
2021-08-24,18.45,20.4,18.2,19.9,19638
2021-08-25,19.9,20.4,19.6,19.9,5249
2021-08-26,19.75,20.2,19.55,19.65,24165
2021-08-27,19.6,19.9,18.75,18.95,7256
2021-08-30,19.15,20.3,19.15,19.85,20442
2021-08-31,20.0,20.0,19.6,19.75,5222
2021-09-01,19.95,20.55,19.75,20.05,6865
2021-09-02,20.5,20.5,19.65,19.8,13865
2021-09-03,20.0,20.05,19.7,19.75,6882
2021-09-06,19.75,19.8,19.15,19.5,4805
2021-09-07,19.55,19.85,19.3,19.5,3584
2021-09-08,19.45,19.5,18.95,19.15,79443
2021-09-09,19.1,19.35,19.05,19.2,4190
2021-09-13,19.35,19.45,18.95,19.2,10745
2021-09-14,19.35,19.45,18.3,18.9,101933
2021-09-15,18.95,19.25,18.95,19.2,3826
2021-09-16,19.05,19.25,18.95,19.05,12339
2021-09-17,19.05,19.25,18.5,18.85,14713
2021-09-20,18.9,18.9,18.3,18.5,8368
2021-09-21,18.35,18.5,18.35,18.45,13519
2021-09-22,18.75,19.0,18.55,18.55,3720
2021-09-23,19.0,19.0,18.2,18.45,6434
2021-09-24,18.45,18.7,17.85,18.15,10185
2021-09-27,18.3,18.8,17.75,18.55,12113
2021-09-28,18.8,20.25,18.55,19.5,46231
2021-09-29,19.85,19.85,19.5,19.65,6924
2021-09-30,19.95,20.45,19.3,19.5,13469
2021-10-01,19.6,20.0,19.25,19.75,10085
2021-10-04,20.4,20.4,19.35,19.5,26208
2021-10-05,19.75,21.0,19.45,20.5,47850
2021-10-06,20.75,21.1,19.3,19.65,38198
2021-10-07,20.0,20.75,19.8,20.0,8714
2021-10-08,20.05,20.75,19.75,20.3,26627
2021-10-11,20.4,22.0,20.0,21.3,66927
2021-10-12,21.1,22.0,21.0,21.8,32755
2021-10-13,21.95,22.0,21.0,21.25,11885
2021-10-14,21.45,21.45,20.6,20.95,8429
2021-10-18,20.8,20.8,19.9,20.2,19572
2021-10-19,20.1,20.3,19.5,19.7,20197
2021-10-20,19.7,19.75,19.1,19.25,8874
2021-10-21,19.3,19.9,19.3,19.5,16446
2021-10-22,19.8,20.0,19.1,19.4,8654
2021-10-25,19.3,19.3,18.7,19.05,11447
2021-10-26,18.75,19.85,18.45,19.2,23427
2021-10-27,19.45,20.1,19.4,19.75,9755
2021-10-28,19.5,19.5,18.75,18.85,11183
2021-10-29,18.85,19.45,18.7,18.75,20527
2021-11-01,19.1,19.2,18.9,18.9,6132
2021-11-02,18.95,19.1,18.95,18.95,2316
2021-11-03,19.1,19.6,18.9,18.9,18852
2021-11-04,19.5,19.5,18.75,19.35,1903
2021-11-08,19.05,19.3,19.0,19.0,5675
2021-11-09,19.25,19.3,19.0,19.15,6666
2021-11-10,19.15,19.25,18.7,19.0,10169
2021-11-11,18.8,19.4,18.65,18.85,8999
2021-11-12,18.95,22.35,18.75,21.9,172456
2021-11-15,21.5,21.5,19.6,20.05,46920
2021-11-16,20.05,20.1,19.65,19.85,17113
2021-11-17,19.8,21.6,19.75,20.2,53057
2021-11-18,20.45,20.5,19.4,19.95,8182
2021-11-22,21.3,21.3,18.8,19.15,22285
2021-11-23,19.0,19.65,19.0,19.2,2985
2021-11-24,19.05,19.6,19.0,19.15,11914
2021-11-25,19.05,19.4,19.05,19.35,1343
2021-11-26,18.85,19.45,18.55,18.95,26729
2021-11-29,18.45,19.2,18.35,18.75,10359
2021-11-30,19.1,19.35,18.75,18.75,1095
2021-12-01,18.3,19.2,18.3,18.85,11047
2021-12-02,18.5,19.0,18.5,18.9,5828
2021-12-03,18.85,19.1,18.6,18.65,7586
2021-12-06,18.5,19.05,18.45,18.65,6286
2021-12-07,18.8,19.0,18.65,18.8,4618
2021-12-08,18.7,21.05,18.7,20.35,58857
2021-12-09,19.1,21.0,19.1,20.4,18741
2021-12-10,20.3,21.1,20.0,20.55,23619
2021-12-13,20.65,20.85,19.85,19.95,4167
2021-12-14,20.6,22.05,20.05,21.55,46255
2021-12-15,21.1,21.2,20.15,20.3,61524
2021-12-16,20.15,20.65,20.0,20.2,8942
2021-12-17,19.95,19.95,18.75,19.3,20254
2021-12-20,18.9,18.9,17.6,18.0,23094
2021-12-21,18.3,18.8,18.0,18.4,13071
2021-12-22,18.65,19.5,18.65,19.0,10773
2021-12-23,19.75,19.85,18.9,18.95,14415
2021-12-24,19.0,19.0,18.0,18.2,8059
2021-12-27,18.2,18.75,18.1,18.5,18694
2021-12-28,17.8,19.4,17.8,19.2,19592
2021-12-29,19.05,20.45,18.9,19.6,31780
2021-12-30,19.5,21.45,19.5,20.5,95788
2021-12-31,21.3,21.3,20.1,20.2,15549
2022-01-03,20.2,21.2,20.1,20.55,38193
2022-01-04,21.65,22.75,20.55,21.45,119669
2022-01-05,21.9,22.2,21.1,21.85,92565
2022-01-06,21.5,21.85,20.85,21.7,29276
2022-01-07,21.7,22.35,20.75,20.85,46671
2022-01-10,21.05,22.5,20.95,22.2,113910
2022-01-11,22.4,22.4,21.0,21.2,56929
2022-01-12,21.6,22.25,21.5,21.75,20758
2022-01-13,22.0,22.0,21.1,21.2,18184
2022-01-14,21.3,21.85,21.1,21.35,44051
2022-01-17,22.2,22.2,21.15,21.6,12965
2022-01-18,21.75,21.95,20.9,21.05,54823
2022-01-19,21.25,21.4,20.5,20.55,18681
2022-01-20,20.6,21.0,20.5,20.65,5523
2022-01-21,20.5,20.65,20.15,20.3,11323
2022-01-24,19.8,20.35,19.0,19.2,60296
2022-01-25,19.05,19.45,19.0,19.2,6202
2022-01-27,19.2,19.85,18.65,19.75,21418
2022-01-28,20.4,20.5,19.65,19.85,15550
2022-01-31,19.9,20.1,19.5,19.8,7171
2022-02-01,19.7,20.4,19.35,19.5,8252
2022-02-02,19.8,21.4,19.8,20.75,26933
2022-02-03,20.95,21.4,20.5,20.6,13884
2022-02-04,20.8,21.0,20.3,20.55,17666
2022-02-07,20.75,20.8,19.95,20.1,6578
2022-02-08,20.0,20.2,19.4,19.85,10022
2022-02-09,20.1,20.45,19.4,19.75,12465
2022-02-10,19.75,20.0,19.35,19.55,10121
2022-02-11,19.2,20.0,19.2,19.65,9028
2022-02-14,19.2,19.6,18.5,18.8,19282
2022-02-15,18.8,19.3,18.3,18.85,15595
2022-02-16,19.45,20.75,19.05,20.2,62236
2022-02-17,20.05,20.15,18.95,19.05,20396
2022-02-18,19.2,19.25,18.8,18.85,3192
2022-02-21,18.6,19.0,18.35,18.55,12229
2022-02-22,18.35,18.4,17.45,18.0,18517
2022-02-23,18.4,18.75,18.15,18.2,10136
2022-02-24,17.5,17.5,16.6,16.85,16248
2022-02-25,17.3,18.2,17.3,17.75,14309
2022-02-28,17.75,18.1,16.95,17.7,4041
2022-03-02,17.4,18.2,17.4,17.7,5243
2022-03-03,19.0,19.0,17.5,17.5,2955
2022-03-04,18.1,18.1,17.15,17.2,1364
2022-03-07,17.2,17.2,16.7,16.9,15343
2022-03-08,16.75,17.2,16.75,17.0,8995
2022-03-09,17.4,17.7,17.15,17.55,10350
2022-03-10,17.65,17.95,17.35,17.6,10354
2022-03-11,17.5,18.95,17.5,18.55,14116
2022-03-14,18.95,19.3,18.35,18.8,23383
2022-03-15,18.45,19.4,18.3,18.55,15130
2022-03-16,19.2,20.25,19.0,19.6,72515
2022-03-17,20.2,21.0,19.3,19.3,11216
2022-03-21,19.45,19.45,18.15,18.25,77944
2022-03-22,18.9,18.9,17.75,17.9,34945
2022-03-23,18.15,18.15,17.6,17.75,22046
2022-03-24,17.6,18.5,17.6,17.65,24342
2022-03-25,17.8,18.15,17.6,17.75,23357
2022-03-28,17.95,17.95,17.4,17.45,8934
2022-03-29,17.35,18.05,16.9,17.0,69965
2022-03-30,17.3,17.75,17.05,17.15,13168
2022-03-31,17.35,17.5,16.95,17.05,20172
2022-04-01,17.25,17.9,17.2,17.75,10178
2022-04-04,18.4,18.45,18.1,18.35,25391
2022-04-05,18.45,19.25,17.85,18.85,40335
2022-04-06,18.75,19.4,18.7,18.8,24889
2022-04-07,18.9,21.0,18.9,20.4,150457
2022-04-08,20.65,21.0,20.15,20.35,58238
2022-04-11,20.9,20.9,19.4,19.5,37194
2022-04-12,19.6,19.6,18.95,19.3,4870
2022-04-13,19.75,20.2,19.3,19.8,8299
2022-04-18,19.75,20.7,18.8,19.75,73949
2022-04-19,20.05,21.85,19.5,19.7,50324
2022-04-20,20.3,20.85,19.7,20.05,15863
2022-04-21,20.25,21.55,20.05,21.05,50705
2022-04-22,20.1,21.5,20.1,20.65,14001
2022-04-25,21.4,21.4,19.55,19.8,24215
2022-04-26,20.2,20.2,19.45,19.65,8287
2022-04-27,19.65,19.65,19.1,19.25,3227
2022-04-28,19.7,19.8,18.9,19.05,10413
2022-04-29,19.35,19.35,18.8,18.9,7582
2022-05-02,18.8,19.05,18.65,18.85,8257
2022-05-04,18.7,18.8,18.2,18.5,7155
2022-05-05,18.6,18.6,17.9,18.0,8017
2022-05-06,18.3,18.3,17.65,17.75,4464
2022-05-09,17.5,17.55,16.9,17.1,12649
2022-05-10,17.4,17.95,17.05,17.2,9479
2022-05-11,17.2,17.25,16.25,17.15,7886
2022-05-12,16.6,16.9,16.3,16.55,4689
2022-05-13,17.25,17.25,16.55,16.7,6739
2022-05-16,17.0,17.5,17.0,17.3,5944
2022-05-17,17.9,17.9,17.25,17.85,5959
2022-05-18,17.75,18.35,17.4,17.8,11363
2022-05-19,17.4,17.75,17.0,17.25,3522
2022-05-20,17.4,17.75,17.3,17.65,1761
2022-05-23,17.65,17.85,17.2,17.35,4787
2022-05-24,17.1,17.3,16.85,17.05,10681
2022-05-25,17.0,17.0,16.5,16.65,10840
2022-05-26,17.15,17.15,16.15,16.45,1615
2022-05-27,16.85,17.2,16.55,16.9,3201
2022-05-30,17.1,17.15,16.85,17.15,7324
2022-05-31,17.0,17.0,16.0,16.75,12326
2022-06-01,16.85,16.95,16.35,16.6,3801
2022-06-02,16.65,16.75,16.35,16.5,3926
2022-06-03,16.75,16.75,16.15,16.15,1365
2022-06-06,16.2,16.35,16.15,16.15,452
2022-06-07,16.5,16.5,16.15,16.2,435
2022-06-08,16.45,16.65,16.15,16.2,1920
2022-06-09,16.1,16.45,15.9,16.05,13308
2022-06-10,16.35,16.35,15.65,16.2,1661
2022-06-13,15.85,16.0,15.4,15.5,4453
2022-06-14,15.8,16.45,15.7,15.85,9482
2022-06-15,15.85,16.0,15.65,15.7,1036
2022-06-16,15.4,16.05,15.25,15.55,3346
2022-06-17,15.65,15.65,15.05,15.25,6995
2022-06-20,15.2,15.5,14.3,14.75,14885
2022-06-21,14.85,15.15,14.75,14.85,4578
2022-06-22,16.6,16.6,14.65,14.85,4867
2022-06-23,15.0,15.3,14.7,14.85,482
2022-06-24,15.4,15.75,15.1,15.45,2776
2022-06-27,15.45,15.65,15.3,15.55,2293
2022-06-28,15.15,15.7,14.85,15.55,1319
2022-06-29,14.5,15.95,14.5,15.5,4106
2022-06-30,15.5,15.6,15.0,15.3,2477
2022-07-01,15.35,15.8,15.1,15.5,4205
2022-07-04,15.75,15.75,15.2,15.6,6031
2022-07-05,15.75,17.25,15.5,16.25,28815
2022-07-06,16.35,16.5,16.0,16.0,7370
2022-07-07,16.15,16.5,16.1,16.15,2277
2022-07-08,16.25,16.4,16.05,16.05,7029
2022-07-11,16.55,16.55,15.9,16.25,915
2022-07-12,16.25,16.35,15.55,16.0,7726
2022-07-13,16.0,16.5,16.0,16.25,5827
2022-07-14,16.35,16.75,15.75,15.85,6987
2022-07-15,15.55,16.35,15.5,15.8,5703
2022-07-18,16.0,16.3,16.0,16.2,360
2022-07-19,16.35,16.5,16.05,16.2,9793
2022-07-20,16.45,16.65,16.25,16.3,5727
2022-07-21,16.3,16.3,16.0,16.05,976
2022-07-22,16.35,16.35,16.0,16.1,9228
2022-07-25,16.1,16.4,15.8,15.95,1985
2022-07-26,15.8,16.1,15.75,15.75,1369
2022-07-27,16.05,16.4,15.75,16.15,2105
2022-07-28,16.05,16.25,15.7,15.85,5733
2022-07-29,16.15,16.2,15.8,15.9,1411
2022-08-01,16.2,16.8,16.15,16.45,20876
2022-08-02,16.5,17.05,16.5,16.8,2055
2022-08-03,16.85,17.05,16.05,16.4,1713
2022-08-04,16.55,16.75,16.35,16.75,1494
2022-08-05,16.6,16.65,16.0,16.4,3196
2022-08-08,16.6,16.75,16.2,16.4,4532
2022-08-10,16.1,17.15,16.05,16.6,16476
2022-08-11,16.55,16.75,16.25,16.25,777
2022-08-12,16.5,16.5,15.95,16.3,4823
2022-08-16,16.45,16.55,16.05,16.25,837
2022-08-17,16.8,17.0,16.35,16.65,9830
2022-08-18,17.4,17.4,16.25,16.5,8799
2022-08-19,17.25,17.45,16.2,16.65,6035
2022-08-22,16.8,17.35,16.05,16.25,10986
2022-08-23,16.35,16.8,16.2,16.4,7167
2022-08-24,16.55,17.2,15.6,16.85,41712
2022-08-25,17.4,17.4,16.65,16.9,5075
2022-08-26,17.15,17.2,16.9,17.1,8231
2022-08-29,16.8,17.35,16.35,16.85,6698
2022-08-30,16.8,17.3,16.8,17.0,525
2022-09-01,17.3,17.3,16.8,16.95,4020
2022-09-02,16.7,17.35,16.7,16.85,7285
2022-09-05,17.2,17.2,16.45,16.75,6935
2022-09-06,16.5,17.25,16.5,16.75,5979
2022-09-07,17.25,17.25,16.65,16.7,2782
2022-09-08,16.95,18.05,16.7,17.75,40589
2022-09-09,17.85,18.4,17.65,17.75,16800
2022-09-12,18.2,18.2,17.4,17.4,5389
2022-09-13,17.8,18.05,17.35,17.9,28532
2022-09-14,17.7,17.7,17.3,17.6,6428
2022-09-15,18.05,18.05,17.0,17.25,15899
2022-09-16,16.9,17.15,16.5,16.75,16354
2022-09-19,16.7,17.3,16.5,16.5,1936
2022-09-20,16.4,16.95,16.4,16.75,621
2022-09-21,16.75,16.75,16.4,16.6,2695
2022-09-22,16.4,16.75,16.4,16.6,1217
2022-09-23,16.55,16.95,16.0,16.1,11191
2022-09-26,15.8,16.45,15.3,15.4,5800
2022-09-27,15.15,16.2,15.15,15.75,1540
2022-09-28,15.45,16.1,15.35,15.8,1757
2022-09-29,15.75,15.95,15.45,15.5,7197
2022-09-30,15.65,15.8,15.3,15.45,3213
2022-10-03,15.2,15.9,15.1,15.25,11671
2022-10-04,15.55,15.8,15.55,15.75,100
2022-10-06,15.55,16.3,15.3,16.15,3175
2022-10-07,16.15,16.25,16.1,16.25,1078
2022-10-10,15.65,16.3,15.65,16.05,2827
2022-10-11,16.0,16.2,16.0,16.2,155
2022-10-12,15.4,16.45,15.4,16.0,2021
2022-10-13,16.4,16.4,15.75,15.85,942
2022-10-14,15.85,16.1,15.75,15.8,2334
2022-10-17,15.85,15.95,15.45,15.5,723
2022-10-18,15.6,15.75,15.3,15.55,5331
2022-10-19,15.65,15.8,15.5,15.55,2563
2022-10-20,15.5,15.7,15.25,15.4,3060
2022-10-21,15.7,15.7,15.35,15.5,4250
2022-10-24,15.7,15.75,15.4,15.55,216
2022-10-25,15.25,15.75,15.25,15.45,3109
2022-10-27,15.7,15.7,15.4,15.4,9106
2022-10-28,15.15,16.1,15.15,15.9,6364
2022-10-31,16.05,16.3,15.5,15.85,3493
2022-11-01,15.85,16.15,15.75,15.9,9339
2022-11-02,15.9,15.9,15.55,15.55,361
2022-11-03,15.5,15.8,15.5,15.5,2921
2022-11-04,15.65,16.2,15.65,16.05,3637
2022-11-07,16.25,16.3,15.75,16.2,3785
2022-11-09,15.7,16.5,15.5,16.2,13929
2022-11-10,16.4,16.65,16.25,16.45,3180
2022-11-11,16.4,16.75,15.8,16.1,5870
2022-11-14,16.0,16.1,15.75,15.8,1829
2022-11-15,15.6,15.8,15.5,15.65,9533
2022-11-16,15.55,15.75,15.4,15.5,3759
2022-11-17,16.3,16.3,15.4,15.6,5010
2022-11-18,15.75,15.75,15.4,15.4,431
2022-11-21,15.35,15.4,15.1,15.25,4799
2022-11-22,14.9,15.6,14.9,15.3,5708
2022-11-23,15.3,15.8,15.1,15.4,20577
2022-11-24,15.2,15.55,15.2,15.4,451
2022-11-25,15.5,15.8,15.2,15.5,7751
2022-11-28,15.75,15.75,15.3,15.45,1144
2022-11-29,15.1,15.75,15.1,15.5,7149
2022-11-30,15.85,16.0,15.3,15.4,4428
2022-12-01,15.45,15.6,14.85,15.25,17922
2022-12-02,15.15,15.35,15.05,15.15,18166
2022-12-05,15.15,15.6,15.15,15.35,36601
2022-12-06,15.15,15.6,15.15,15.2,7530
2022-12-07,15.3,15.5,15.05,15.2,7035
2022-12-08,15.2,15.35,14.8,15.15,6960
2022-12-09,15.2,15.35,15.1,15.15,5639
2022-12-12,14.75,15.35,14.75,15.05,6489
2022-12-13,15.0,16.9,14.85,16.1,73084
2022-12-14,16.45,16.5,16.0,16.1,18508
2022-12-15,15.95,16.2,15.1,15.25,16040
2022-12-16,15.65,15.65,15.25,15.35,3829
2022-12-19,15.6,16.3,15.25,15.85,74413
2022-12-20,15.85,17.5,15.85,16.55,53604
2022-12-21,16.85,17.05,15.2,15.3,56662
2022-12-22,15.45,15.5,14.8,15.05,9899
2022-12-23,14.9,15.0,14.45,14.5,18525
2022-12-26,14.7,15.35,14.7,15.1,5159
2022-12-27,15.3,15.35,15.0,15.05,5683
2022-12-28,15.55,15.55,15.05,15.25,9064
2022-12-29,15.0,15.65,15.0,15.2,13529
2022-12-30,15.25,15.8,15.1,15.5,19962
2023-01-02,15.1,16.25,15.1,16.05,28540
2023-01-03,16.1,16.3,15.4,16.15,6449
2023-01-04,15.9,16.05,15.6,15.75,20873
2023-01-05,15.85,15.85,15.6,15.75,1985
2023-01-06,15.7,15.85,15.5,15.8,1297
2023-01-09,16.0,16.1,15.4,15.55,2683
2023-01-10,15.45,15.5,15.15,15.25,6308
2023-01-11,15.5,16.3,15.4,15.4,13096
2023-01-12,15.55,15.7,15.3,15.3,657
2023-01-13,15.35,15.85,15.1,15.35,2627
2023-01-16,15.5,15.75,15.2,15.25,3772
2023-01-17,15.25,15.65,15.25,15.45,389
2023-01-18,15.35,15.55,15.2,15.3,2116
2023-01-19,15.2,15.25,15.05,15.05,6266
2023-01-20,15.2,15.35,15.05,15.15,1894
2023-01-23,15.2,15.5,14.2,15.05,3336
2023-01-24,15.05,15.1,14.75,15.0,1950
2023-01-25,14.9,15.0,14.7,14.7,6647
2023-01-27,14.7,14.7,14.25,14.35,1664
2023-01-30,14.5,14.6,14.3,14.35,2797
2023-01-31,14.2,14.65,14.2,14.35,4443
2023-02-01,14.0,14.45,14.0,14.05,8755
2023-02-02,14.15,14.2,14.05,14.05,1991
2023-02-03,14.05,14.39,13.66,13.99,3894
2023-02-06,13.6,13.88,13.6,13.69,3770
2023-02-07,13.69,13.97,13.28,13.78,4490
2023-02-08,13.41,13.97,13.41,13.71,6448
2023-02-09,13.9,14.0,13.58,13.74,10306
2023-02-10,13.88,13.92,13.88,13.9,1008
2023-02-13,13.71,14.1,13.6,13.69,5842
2023-02-14,13.6,13.79,13.37,13.44,3615
2023-02-15,13.3,13.37,13.25,13.3,6794
2023-02-16,13.38,13.58,13.33,13.35,1324
2023-02-17,13.52,13.6,13.43,13.57,1015
2023-02-20,13.48,13.5,13.25,13.3,660
2023-02-21,13.2,13.27,13.2,13.2,1258
2023-02-22,13.25,13.49,13.0,13.05,7497
2023-02-23,13.46,13.46,13.27,13.28,854
2023-02-24,13.28,13.28,12.61,13.01,10807
2023-02-27,13.15,13.17,11.28,11.38,22738
2023-02-28,11.42,11.69,11.0,11.64,2713
2023-03-01,11.3,12.48,11.3,12.29,4904
2023-03-02,13.0,13.0,12.4,12.66,4484
2023-03-03,12.59,12.99,12.58,12.6,2930
2023-03-06,12.6,12.8,12.6,12.72,7847
2023-03-08,12.63,12.89,12.55,12.84,588
2023-03-09,12.73,12.75,12.51,12.64,3976
2023-03-10,12.4,12.5,11.5,11.72,8965
2023-03-13,11.72,11.82,10.95,11.18,10077
2023-03-14,11.18,11.4,11.18,11.36,237
2023-03-15,11.52,11.77,11.4,11.52,21329
2023-03-16,11.4,11.52,11.12,11.52,1383
2023-03-17,11.6,11.67,11.0,11.5,13006
2023-03-20,11.2,11.85,10.9,10.96,38654
2023-03-21,11.12,11.2,10.97,11.0,8538
2023-03-22,11.07,11.39,10.8,10.98,3877
2023-03-23,11.12,11.38,11.0,11.01,17998
2023-03-24,10.8,11.43,10.75,10.77,9484
2023-03-27,10.5,11.1,10.42,10.51,22398
2023-03-28,10.65,11.09,10.3,10.67,9624
2023-03-29,10.43,10.9,10.4,10.75,13059
2023-03-31,10.75,11.56,10.3,11.33,28712
2023-04-03,11.13,13.34,11.1,12.76,8553
2023-04-05,12.05,13.15,12.0,12.26,14889
2023-04-06,12.0,12.47,11.7,12.2,7046
2023-04-10,11.85,12.4,11.7,11.83,3896
2023-04-11,11.9,13.21,11.9,13.04,14227
2023-04-12,13.42,13.5,12.72,12.74,3054
2023-04-13,13.0,13.5,13.0,13.05,1109
2023-04-17,13.05,13.05,12.61,12.73,2477
2023-04-18,12.73,12.97,12.61,12.75,4359
2023-04-19,12.92,12.92,12.45,12.67,599
2023-04-20,12.7,12.7,12.31,12.56,1875
2023-04-21,12.56,12.56,12.1,12.3,4216
2023-04-24,12.0,12.64,11.99,12.32,1495
2023-04-25,12.1,12.73,12.1,12.52,2714
2023-04-26,12.56,12.62,12.05,12.48,4538
2023-04-27,12.53,12.75,12.45,12.67,751
2023-04-28,12.75,12.81,12.3,12.75,6334
2023-05-02,12.75,12.93,12.4,12.4,2880
2023-05-03,12.45,12.75,12.4,12.75,1251
2023-05-04,12.95,13.32,12.91,12.93,9285
2023-05-05,13.02,13.19,12.52,12.95,5034
2023-05-08,12.41,14.19,12.41,13.88,50783
2023-05-09,13.73,14.0,13.6,13.71,1649
2023-05-10,13.5,13.5,13.08,13.09,4408
2023-05-11,13.28,13.28,13.12,13.15,3074
2023-05-12,13.13,13.24,13.11,13.12,2056
2023-05-15,13.22,13.84,13.0,13.26,6781
2023-05-16,13.25,13.61,13.06,13.09,12186
2023-05-17,13.19,13.19,12.82,12.97,1312
2023-05-18,13.06,13.28,12.7,12.73,6137
2023-05-19,12.92,12.92,12.73,12.91,567
2023-05-22,12.91,12.98,12.68,12.92,2072
2023-05-23,12.88,13.0,12.79,12.79,1017
2023-05-24,12.48,13.27,12.48,13.07,4725
2023-05-25,13.53,13.75,13.43,13.52,1234
2023-05-26,13.67,13.99,13.5,13.68,7525
2023-05-29,13.1,13.8,13.1,13.5,3800
2023-05-30,13.38,13.48,13.06,13.38,3675
2023-05-31,13.08,13.39,12.79,12.95,5733
2023-06-01,13.17,13.26,12.75,13.1,5228
2023-06-02,13.08,13.11,12.99,12.99,2006
2023-06-05,12.98,13.5,12.9,13.01,3303
2023-06-06,13.08,13.22,12.85,12.98,3411
2023-06-07,12.88,13.95,12.86,13.43,46538
2023-06-08,13.6,13.6,12.86,13.03,13742
2023-06-09,13.4,13.4,13.01,13.21,5837
2023-06-12,12.85,13.4,12.85,13.11,4451
2023-06-13,13.47,13.53,13.32,13.32,513
2023-06-14,13.32,13.83,13.0,13.6,18814
2023-06-15,13.9,13.9,13.15,13.2,2261
2023-06-16,13.28,13.55,13.1,13.55,5615
2023-06-19,13.8,13.8,13.11,13.21,7425
2023-06-20,13.18,13.57,13.06,13.28,8154
2023-06-21,13.13,13.57,13.13,13.43,590
2023-06-22,13.43,13.6,13.01,13.28,9548
2023-06-23,13.1,13.2,13.05,13.05,6510
2023-06-26,13.22,13.27,13.0,13.18,3729
2023-06-27,13.35,13.37,13.0,13.08,1351
2023-06-28,13.1,13.1,13.08,13.08,506
2023-06-30,13.08,13.4,13.05,13.07,4990
2023-07-03,12.81,13.5,12.81,13.26,6093
2023-07-04,13.33,13.33,13.1,13.19,219
2023-07-05,13.2,13.3,13.02,13.18,2123
2023-07-06,12.92,13.32,12.92,13.1,2410
2023-07-07,13.27,13.28,12.53,12.92,9294
2023-07-10,12.63,13.28,12.61,12.9,1834
2023-07-11,13.25,13.25,12.8,12.8,9764
2023-07-12,12.82,13.14,12.7,12.85,2865
2023-07-13,12.8,13.04,12.63,12.71,3975
2023-07-14,12.96,12.96,12.55,12.63,2420
2023-07-17,12.94,12.99,12.53,12.7,1656
2023-07-18,12.75,12.75,12.51,12.6,11111
2023-07-19,12.72,12.92,12.6,12.63,7957
2023-07-20,12.63,12.67,12.45,12.62,5101
2023-07-21,12.5,12.79,12.48,12.5,4165
2023-07-24,12.35,12.63,12.32,12.35,19754
2023-07-25,13.25,13.25,12.29,12.47,3831
2023-07-26,12.31,12.6,12.3,12.55,9200
2023-07-27,12.59,12.6,12.45,12.51,3789
2023-07-28,12.2,12.54,12.2,12.35,8297
2023-07-31,12.54,12.77,12.3,12.32,7148
2023-08-01,12.57,12.57,12.32,12.4,1340
2023-08-02,12.41,12.49,12.07,12.3,4776
2023-08-03,12.4,12.5,12.22,12.27,5399
2023-08-04,12.1,12.44,12.1,12.3,1195
2023-08-07,12.79,12.8,12.12,12.21,12624
2023-08-08,12.15,12.55,12.11,12.15,4182
2023-08-09,12.45,12.45,12.16,12.21,442
2023-08-10,12.29,12.55,12.13,12.2,15220
2023-08-11,12.2,13.47,12.12,12.85,114127
2023-08-14,12.9,13.25,12.71,12.73,6029
2023-08-16,11.15,13.84,11.15,13.43,16035
2023-08-17,13.54,14.0,12.95,13.32,46259
2023-08-18,13.32,13.38,13.01,13.01,2701
2023-08-21,13.22,13.38,13.05,13.11,6554
2023-08-22,13.25,13.4,13.02,13.06,15662
2023-08-23,13.17,13.64,13.12,13.2,28379
2023-08-24,13.47,13.53,13.18,13.27,6655
2023-08-25,13.28,13.72,13.28,13.4,509
2023-08-28,12.8,13.42,12.8,13.1,11374
2023-08-29,13.33,13.43,13.03,13.06,8736
2023-08-30,13.06,13.4,13.0,13.13,6317
2023-08-31,13.13,13.3,12.75,12.95,63345
2023-09-01,12.8,13.15,12.8,13.06,13921
2023-09-04,13.15,13.44,13.12,13.26,34613
2023-09-05,13.4,15.91,13.4,15.91,686864
2023-09-06,16.06,17.33,15.1,16.95,370686
2023-09-07,17.0,18.5,16.55,17.05,281437
2023-09-08,17.7,17.7,16.1,16.31,87682
2023-09-11,16.31,16.64,16.0,16.26,29286
2023-09-12,16.02,16.29,14.7,14.94,75831
2023-09-13,15.0,15.65,14.6,15.54,7318
2023-09-14,16.75,16.75,15.5,15.6,5189
2023-09-15,15.31,16.44,15.31,16.13,40336
2023-09-18,15.82,16.3,15.65,16.11,7352
2023-09-20,15.11,15.79,15.11,15.27,21156
2023-09-21,15.38,15.78,15.15,15.24,18413
2023-09-22,15.5,15.5,15.0,15.05,5562
2023-09-25,15.2,15.59,15.11,15.49,13159
2023-09-26,15.25,15.44,15.05,15.08,32813
2023-09-27,15.08,15.39,14.81,15.0,3608
2023-09-28,15.16,15.26,14.75,14.77,14013
2023-09-29,14.8,15.03,14.67,14.67,7882
2023-10-03,15.0,15.0,14.66,14.91,3180
2023-10-04,14.76,15.0,14.76,14.91,8318
2023-10-05,14.91,14.91,14.46,14.72,4998
2023-10-06,14.94,15.11,14.71,15.05,14248
2023-10-09,15.05,15.05,14.6,14.77,4755
2023-10-10,14.99,14.99,14.51,14.57,10476
2023-10-11,14.86,16.3,14.74,16.23,98806
2023-10-12,16.15,16.5,15.5,15.83,85458
2023-10-13,15.51,16.23,15.51,15.65,6509
2023-10-16,15.31,15.99,15.25,15.38,44336
2023-10-17,15.69,15.69,15.16,15.39,2287
2023-10-18,15.16,15.5,14.95,15.19,29321
2023-10-19,14.86,15.19,14.86,14.95,2559
2023-10-20,15.2,15.35,14.81,15.04,12360
2023-10-23,15.12,15.34,13.8,13.87,39366
2023-10-25,13.59,14.59,13.59,14.05,3950
2023-10-26,13.86,14.14,13.1,13.54,96753
2023-10-27,13.74,14.09,13.56,13.77,6077
2023-10-30,13.8,14.14,13.61,13.73,9369
2023-10-31,14.36,14.36,13.61,13.68,199
2023-11-01,13.95,14.1,13.71,13.75,25903
2023-11-02,14.04,14.24,13.87,14.04,326
2023-11-03,14.14,14.39,14.0,14.0,26944
2023-11-06,14.28,14.74,14.07,14.48,10603
2023-11-07,14.21,14.74,14.21,14.57,6259
2023-11-08,14.88,15.09,14.45,14.77,25278
2023-11-09,14.71,15.09,14.56,14.63,1739
2023-11-10,14.45,16.0,14.41,15.64,90618
2023-11-12,16.35,16.35,15.56,15.81,10305
2023-11-13,15.98,15.98,15.24,15.34,38115
2023-11-15,15.55,15.79,15.21,15.43,5290
2023-11-16,15.14,15.44,15.05,15.22,11815
2023-11-17,15.0,15.64,14.95,15.52,13991
2023-11-20,15.75,17.45,15.45,16.95,235422
2023-11-21,17.99,18.05,17.35,17.92,228527
2023-11-22,18.15,18.15,16.66,16.86,35073
2023-11-23,16.86,17.19,16.5,16.67,48757
2023-11-24,17.0,17.29,16.83,17.01,18703
2023-11-28,17.98,17.98,16.57,16.87,41799
2023-11-29,17.18,17.18,16.51,16.6,27505
2023-11-30,16.89,16.89,15.85,15.98,41905
2023-12-01,16.24,16.5,15.95,16.2,33032
2023-12-04,16.45,16.45,16.1,16.2,18513
2023-12-05,16.01,16.26,15.75,16.03,63008
2023-12-06,16.04,17.51,16.04,17.0,63621
2023-12-07,17.0,17.6,16.65,17.15,56783
2023-12-08,17.49,17.49,16.7,16.71,31657
2023-12-11,17.09,17.09,16.44,16.52,11537
2023-12-12,16.19,16.94,16.19,16.45,10515
2023-12-13,16.12,16.65,14.22,16.43,51311
2023-12-14,16.79,16.79,16.18,16.31,25056
2023-12-15,16.61,16.75,16.15,16.25,5898
2023-12-18,16.59,19.5,16.05,18.95,344051
2023-12-19,18.96,19.82,18.3,18.91,292529
2023-12-20,18.91,19.77,17.87,18.37,65416
2023-12-21,18.43,19.33,17.9,18.84,64921
2023-12-22,19.33,19.5,18.16,18.39,21707
2023-12-26,18.76,18.78,17.73,18.25,25390
2023-12-27,18.5,18.63,17.31,17.53,36863
2023-12-28,17.8,17.8,16.55,16.69,190549
2023-12-29,16.4,17.77,16.4,17.52,38994
2024-01-01,17.99,19.08,17.48,18.34,110192
2024-01-02,18.72,20.75,18.5,20.25,404397
2024-01-03,20.64,20.73,19.63,19.76,91699
2024-01-04,20.16,20.3,19.45,19.55,58867
2024-01-05,19.95,19.95,16.21,19.23,237560
2024-01-08,19.5,20.09,19.32,19.68,31670
2024-01-09,20.1,20.7,19.24,20.33,97232
2024-01-10,20.0,20.3,19.76,19.9,28038
2024-01-11,20.3,20.3,19.45,19.71,4456
2024-01-12,19.93,20.19,19.23,19.33,73439
2024-01-15,19.11,20.5,19.11,19.92,51201
2024-01-16,20.83,20.83,19.12,19.54,56162
2024-01-17,19.93,19.93,19.03,19.05,14391
2024-01-18,18.1,19.5,18.1,19.15,11785
2024-01-19,19.53,20.34,19.18,19.91,16644
2024-01-20,20.0,20.01,19.38,19.44,35764
2024-01-23,19.85,19.85,17.91,18.19,7254
2024-01-24,18.55,18.55,17.74,17.98,25166
2024-01-25,17.8,18.92,17.8,18.53,60627
2024-01-29,19.19,19.4,18.39,18.64,30775
2024-01-30,18.64,19.92,18.37,19.23,80940
2024-01-31,19.6,19.73,18.86,18.97,32675
2024-02-01,18.97,19.33,18.4,18.69,63995
2024-02-02,18.81,19.06,18.41,18.48,59812
2024-02-05,18.6,18.64,18.03,18.1,24840
2024-02-06,17.74,21.72,17.74,21.72,283854
2024-02-07,21.73,24.38,20.85,22.97,470903
2024-02-08,23.73,23.73,22.43,23.02,77650
2024-02-09,24.26,24.26,21.03,21.94,64211
2024-02-12,22.38,22.43,19.37,20.0,36976
2024-02-13,19.65,20.12,18.69,19.22,58301
2024-02-14,19.7,20.37,19.23,20.16,12432
2024-02-15,21.99,21.99,20.47,20.72,37904
2024-02-16,21.01,21.62,20.89,21.18,44295
2024-02-19,21.75,21.75,20.62,20.67,77453
2024-02-20,20.62,21.12,20.22,20.33,13930
2024-02-21,20.33,20.95,19.53,19.75,48581
2024-02-22,19.8,20.78,19.17,20.4,72634
2024-02-23,20.02,20.68,19.87,19.98,40687
2024-02-26,19.91,20.03,19.07,19.31,32662
2024-02-27,19.32,19.84,18.67,18.94,53805
2024-02-28,18.9,19.22,17.93,18.32,62103
2024-02-29,17.96,18.65,17.95,18.33,28737
2024-03-01,18.36,19.32,18.36,19.18,24691
2024-03-02,19.0,19.75,19.0,19.33,19807
2024-03-04,18.84,20.4,18.67,19.56,178848
2024-03-05,20.35,20.75,19.17,19.35,116260
2024-03-06,19.0,19.41,18.5,18.87,52321
2024-03-07,18.02,19.17,18.02,18.77,33369
2024-03-11,18.25,18.93,18.05,18.21,43444
2024-03-12,18.54,18.54,16.6,16.8,61603
2024-03-13,16.15,16.85,15.25,15.43,17977
2024-03-14,14.9,16.13,14.85,15.84,25677
2024-03-15,15.81,16.35,15.52,15.92,30379
2024-03-18,15.61,16.2,15.61,15.94,15600
2024-03-19,15.11,16.0,15.11,15.4,20982
2024-03-20,15.71,15.71,14.6,14.74,40828
2024-03-21,14.8,16.45,14.8,16.14,44585
2024-03-22,15.8,16.28,15.6,15.9,49805
2024-03-26,16.2,16.2,15.43,15.55,25665
2024-03-27,15.63,15.63,14.7,14.89,47009
2024-03-28,15.25,15.39,14.55,14.69,34971
2024-04-01,14.4,16.23,14.4,16.12,54573
2024-04-02,15.88,16.75,15.8,16.58,43284
2024-04-03,15.61,17.5,15.61,17.33,15006
2024-04-04,17.37,20.0,17.14,19.54,210907
2024-04-05,19.93,21.2,18.81,20.88,132652
2024-04-08,20.85,21.5,19.51,19.8,139808
2024-04-09,19.55,20.29,19.45,19.52,79229
2024-04-10,19.94,20.0,19.22,19.37,22763
2024-04-12,19.02,19.54,18.3,18.89,71919
2024-04-15,18.49,19.18,17.35,19.07,45432
2024-04-16,18.4,20.97,18.4,20.97,94475
2024-04-18,21.9,23.06,21.39,22.2,183251
2024-04-19,21.76,22.2,21.01,22.05,51768
2024-04-22,22.9,23.03,21.66,22.4,43208
2024-04-23,22.85,22.85,21.9,22.05,17249
2024-04-24,22.1,22.41,21.93,21.95,26050
2024-04-25,22.01,22.01,21.25,21.38,13768
2024-04-26,21.8,21.84,21.36,21.59,13601
2024-04-29,21.6,21.8,21.41,21.6,7218
2024-04-30,22.38,22.38,21.85,22.01,19787
2024-05-02,22.0,23.45,21.7,22.84,127089
2024-05-03,22.77,23.1,22.43,22.63,11152
2024-05-06,22.73,22.81,22.0,22.31,60727
2024-05-07,22.9,22.9,21.81,22.22,31725
2024-05-08,22.45,22.6,21.95,22.01,30377
2024-05-09,21.6,22.1,20.46,20.89,14308
2024-05-10,20.46,20.83,20.16,20.61,7656
2024-05-13,20.7,20.7,19.6,20.22,79719
2024-05-14,20.0,22.0,19.43,21.64,24896
2024-05-15,22.89,22.89,21.11,21.49,22606
2024-05-16,21.54,21.85,21.0,21.02,10646
2024-05-17,20.51,21.98,20.51,21.38,11881
2024-05-18,21.5,21.82,21.5,21.57,631
2024-05-21,21.14,21.53,20.5,21.05,69587
2024-05-22,20.92,21.2,20.8,21.08,58574
2024-05-23,21.08,21.29,20.6,20.73,18558
2024-05-24,20.97,20.97,20.47,20.51,17790
2024-05-27,20.92,20.92,20.15,20.15,1193
2024-05-28,20.23,20.23,19.82,19.94,5398
2024-05-29,19.5,21.0,19.5,20.64,26649
2024-05-30,20.9,20.9,19.91,19.97,5769
2024-05-31,20.07,20.07,19.6,19.71,8785
2024-06-03,19.6,20.08,19.6,19.75,66433
2024-06-04,19.86,20.15,18.0,18.51,10548
2024-06-05,19.0,19.14,17.43,18.21,14019
2024-06-06,18.57,19.43,18.41,19.43,21356
2024-06-07,19.82,21.25,19.44,19.95,29314
2024-06-10,19.02,20.4,19.02,20.38,3595
2024-06-11,21.0,21.0,19.9,20.21,44062
2024-06-12,20.25,20.48,20.0,20.12,69345
2024-06-13,20.12,20.12,19.82,19.94,7839
2024-06-14,19.91,20.8,19.87,19.97,42858
2024-06-18,19.61,20.49,19.61,19.83,23285
2024-06-19,20.19,20.19,19.08,19.11,23104
2024-06-20,19.11,19.41,19.07,19.1,9739
2024-06-21,19.45,19.5,19.0,19.44,35134
2024-06-24,19.01,20.1,19.01,19.37,31323
2024-06-25,19.28,19.84,19.21,19.36,20028
2024-06-26,19.52,19.7,19.17,19.37,69408
2024-06-27,19.37,19.68,18.98,19.58,7749
2024-06-28,19.07,19.75,19.07,19.61,9558
2024-07-01,19.9,20.71,19.71,20.54,40745
2024-07-02,20.93,21.7,19.91,21.09,108625
2024-07-03,21.09,21.7,20.85,20.95,12591
2024-07-04,20.61,20.99,20.18,20.25,9715
2024-07-05,20.58,21.45,19.78,20.73,21315
2024-07-08,21.14,21.65,20.0,21.0,22987
2024-07-09,20.51,21.74,20.51,20.97,29833
2024-07-10,20.97,21.08,20.3,20.53,27629
2024-07-11,21.0,21.0,20.33,20.37,2983
2024-07-12,20.49,21.18,20.35,20.98,27992
2024-07-15,21.4,21.4,20.63,20.64,2379
2024-07-16,20.5,20.73,20.1,20.27,2627
2024-07-18,20.1,21.1,19.87,20.38,7148
2024-07-19,20.68,20.68,19.71,20.16,6686
2024-07-22,20.79,20.79,19.8,19.85,6045
2024-07-23,19.56,20.09,19.0,19.6,18082
2024-07-24,19.9,21.56,19.6,21.56,79879
2024-07-25,21.56,23.22,21.24,21.78,74074
2024-07-26,22.2,22.2,21.2,21.27,20218
2024-07-29,20.84,21.36,20.73,20.97,14703
2024-07-30,20.55,21.49,20.55,21.18,27244
2024-07-31,21.59,21.59,20.62,20.79,23607
2024-08-01,21.54,21.54,20.39,20.53,3576
2024-08-02,20.61,21.03,19.7,20.83,19378
2024-08-05,20.41,20.41,19.4,19.94,79789
2024-08-06,19.45,20.23,19.2,19.46,12535
2024-08-07,19.8,21.2,19.0,20.28,64388
2024-08-08,20.69,20.8,20.05,20.07,5954
2024-08-09,20.44,22.8,20.44,21.81,162874
2024-08-12,22.05,22.25,21.36,21.37,24911
2024-08-13,21.79,21.79,20.21,20.26,7708
2024-08-14,20.66,20.66,19.89,19.95,6098
2024-08-16,20.35,20.45,19.97,20.19,3882
2024-08-19,20.8,22.74,20.13,22.32,64758
2024-08-20,24.9,25.25,21.99,23.42,181924
2024-08-21,24.0,24.68,22.88,23.09,23607
2024-08-22,23.55,23.7,22.47,22.55,74860
2024-08-23,22.8,23.3,22.11,22.19,8478
2024-08-26,21.85,23.08,21.85,22.6,12929
2024-08-27,22.15,22.59,21.35,21.57,19523
2024-08-28,21.88,21.89,20.85,20.91,49194
2024-08-29,21.33,21.33,20.75,20.82,8285
2024-08-30,20.71,21.25,20.42,21.02,24937
2024-09-02,21.5,22.54,20.67,22.23,76482
2024-09-03,22.67,22.75,21.95,22.59,37338
2024-09-04,21.55,22.41,21.55,21.99,28947
2024-09-05,21.9,22.6,21.9,22.0,23869
2024-09-06,22.0,22.4,21.5,21.91,33153
2024-09-09,22.35,22.42,21.52,21.76,36077
2024-09-10,22.2,22.29,21.92,21.94,1431
2024-09-11,21.51,22.44,21.51,22.06,33625
2024-09-12,21.9,22.37,21.0,21.53,29660
2024-09-13,21.6,22.49,21.6,21.95,60087
2024-09-16,22.38,22.4,21.78,21.8,5870
2024-09-17,21.82,21.92,21.52,21.8,7018
2024-09-18,21.32,21.87,20.85,21.07,25293
2024-09-19,21.43,21.43,20.45,20.49,20077
2024-09-20,20.9,21.35,20.72,21.1,1383
2024-09-23,21.48,21.48,20.72,20.84,11153
2024-09-24,20.52,21.28,20.52,20.9,19295
2024-09-25,21.32,21.32,20.0,20.05,33860
2024-09-26,20.35,20.4,19.94,20.26,13957
2024-09-27,21.2,21.2,20.0,20.11,21825
2024-09-30,20.5,20.59,20.0,20.11,20602
2024-10-01,20.01,20.99,20.01,20.83,11829
2024-10-03,20.83,20.83,19.9,20.17,17273
2024-10-04,20.57,20.57,19.52,19.65,21258
2024-10-07,19.41,19.65,18.65,18.93,31988
2024-10-08,18.25,19.69,18.25,19.31,11266
2024-10-09,19.67,20.65,19.16,20.06,36853
2024-10-10,20.99,20.99,20.16,20.35,3572
2024-10-11,20.44,20.5,19.85,19.98,4966
2024-10-14,19.92,20.14,19.66,19.77,9305
2024-10-15,19.54,19.79,19.5,19.57,1558
2024-10-16,19.33,19.71,19.07,19.49,8084
2024-10-17,19.28,19.3,18.8,18.95,18101
2024-10-18,18.78,19.2,18.56,19.09,16969
2024-10-21,19.43,19.57,18.65,18.77,10970
2024-10-22,19.3,19.3,18.01,18.02,15617
2024-10-23,18.41,18.41,17.1,17.35,7442
2024-10-24,17.05,17.94,17.05,17.8,2062
2024-10-25,17.44,17.8,17.2,17.35,1594
2024-10-28,17.72,17.75,17.14,17.16,2633
2024-10-29,17.79,17.79,17.1,17.24,21882
2024-10-30,17.25,17.7,17.25,17.68,9700
2024-10-31,17.32,18.5,17.32,17.94,7970
2024-11-01,18.32,18.8,17.89,18.73,11096
2024-11-04,19.1,19.95,18.97,19.2,59383
2024-11-05,19.57,19.88,19.36,19.39,12442
2024-11-06,19.62,19.62,19.01,19.41,5194
2024-11-07,18.81,19.5,18.81,19.19,16316
2024-11-08,19.45,19.47,18.5,18.74,7323
2024-11-11,19.58,19.58,18.52,19.04,6273
2024-11-12,19.46,19.46,18.05,18.2,3148
2024-11-13,17.92,18.22,17.1,17.27,15866
2024-11-14,17.23,17.7,17.23,17.54,3841
2024-11-18,17.3,17.7,16.75,17.16,2843
2024-11-19,17.2,17.59,16.67,16.9,17145
2024-11-21,17.99,17.99,16.29,16.37,2778
2024-11-22,16.7,16.9,16.36,16.75,5453
2024-11-25,19.0,19.0,16.94,17.17,18117
2024-11-26,18.45,18.45,17.0,17.12,5559
2024-11-27,17.49,17.57,17.1,17.37,4490
2024-11-28,17.7,18.13,17.21,17.74,18327
2024-11-29,17.99,18.14,17.66,17.87,4717
2024-12-02,18.1,19.3,18.02,18.85,24435
2024-12-03,19.23,19.23,18.81,18.92,2200
2024-12-04,18.8,19.8,18.77,19.0,20926
2024-12-05,19.3,19.5,18.78,19.29,7060
2024-12-06,19.01,19.39,18.99,19.05,3286
2024-12-09,19.42,20.54,19.37,19.86,14492
2024-12-10,20.01,20.01,19.3,19.53,13015
2024-12-11,19.9,19.9,19.19,19.28,798
2024-12-12,19.5,19.5,19.08,19.22,1774
2024-12-13,19.01,19.46,18.61,18.97,849
2024-12-16,19.35,20.02,18.9,19.63,6946
2024-12-17,19.69,19.69,18.78,19.01,14959
2024-12-18,18.81,19.22,18.62,18.75,16401
2024-12-19,18.51,19.0,18.4,18.76,10484
2024-12-20,18.5,19.1,18.5,18.72,11919
2024-12-23,19.99,19.99,18.04,18.15,3481
2024-12-24,21.0,21.0,17.61,18.01,16347
2024-12-26,20.47,20.47,17.71,17.82,9667
2024-12-27,17.85,17.97,17.7,17.73,7942
2024-12-30,17.88,17.9,17.41,17.64,1774
2024-12-31,17.89,18.4,17.64,18.14,2327
2025-01-01,17.9,18.52,17.9,18.13,3355
2025-01-02,17.82,20.0,17.82,18.55,12603
2025-01-03,18.35,18.7,18.13,18.28,6076
2025-01-06,17.96,18.43,17.41,17.49,12984
2025-01-07,18.25,18.25,17.54,18.1,4973
2025-01-08,18.99,18.99,17.93,17.93,2743
2025-01-09,19.48,19.48,17.73,17.93,804
2025-01-10,18.5,18.5,17.01,17.17,6828
2025-01-13,17.49,17.49,16.56,16.73,2036
2025-01-14,17.05,17.07,16.78,17.07,1711
2025-01-15,17.35,17.43,16.82,17.0,6818
2025-01-16,17.2,17.32,17.0,17.24,1458
2025-01-17,17.38,17.4,16.7,16.83,6420
2025-01-20,16.95,17.15,16.86,17.1,1508
2025-01-21,17.5,17.5,16.5,16.52,17440
2025-01-22,16.84,16.84,16.3,16.44,10390
2025-01-23,16.26,17.55,16.26,16.7,43677
2025-01-24,16.89,16.89,15.0,15.51,14224
2025-01-27,15.28,15.28,14.53,14.68,9783
2025-01-28,14.8,15.7,14.37,15.32,7107
2025-01-29,16.5,16.5,15.5,15.98,6123
2025-01-30,16.0,18.02,16.0,17.77,52946
2025-01-31,18.25,19.85,17.8,19.47,40360
2025-02-01,19.31,20.85,18.79,19.68,18620
2025-02-03,19.68,19.99,19.26,19.62,5547
2025-02-04,19.25,20.01,19.25,19.87,12329
2025-02-05,19.5,19.91,19.0,19.41,3348
2025-02-06,18.62,20.7,18.48,20.13,23406
2025-02-07,19.3,20.07,19.3,19.4,3781
2025-02-10,19.3,19.69,19.13,19.18,682
2025-02-11,19.88,20.65,19.02,20.3,98429
2025-02-12,20.55,22.69,20.31,22.23,186078
2025-02-13,21.79,23.49,21.79,22.53,99658
2025-02-14,23.06,23.06,21.88,22.22,31190
2025-02-17,22.0,23.4,22.0,22.56,20505
2025-02-18,22.9,23.38,22.0,22.71,43636
2025-02-19,23.22,26.5,23.22,24.98,95504
2025-02-20,25.01,28.89,25.01,27.12,72645
2025-02-21,29.89,31.25,27.64,30.34,105797
2025-02-24,31.56,36.4,31.22,36.38,428479
2025-02-25,36.26,36.39,34.57,34.57,40665
2025-02-27,32.85,32.85,32.85,32.85,5080
2025-02-28,31.21,31.21,31.21,31.21,384
2025-03-03,29.65,29.65,29.65,29.65,465
2025-03-04,28.17,28.17,28.17,28.17,1222
2025-03-05,26.77,26.77,26.77,26.77,759
2025-03-06,25.44,25.44,25.44,25.44,2039
2025-03-07,24.17,26.71,24.17,26.68,55715
2025-03-10,27.8,27.8,25.35,25.35,28812
2025-03-11,24.09,24.09,24.09,24.09,298
2025-03-12,22.89,25.2,22.89,24.45,40096
2025-03-13,24.29,25.67,23.23,25.4,113206
2025-03-17,24.16,24.4,24.13,24.13,6777
2025-03-18,22.93,25.0,22.93,24.55,34813
2025-03-19,24.13,25.77,24.13,25.77,29093
2025-03-20,25.97,27.05,25.97,27.05,33213
2025-03-21,27.94,28.4,27.2,28.4,66134
2025-03-24,29.8,29.82,29.36,29.82,32559
2025-03-25,30.07,31.31,30.07,31.31,28422
2025-03-26,30.95,31.93,30.69,31.93,47855
2025-03-27,32.56,32.56,32.56,32.56,33937
2025-03-28,33.21,33.21,33.21,33.21,16996
2025-04-01,33.21,33.87,33.21,33.87,66059
2025-04-02,34.54,34.54,34.54,34.54,26949
2025-04-03,35.23,35.23,35.23,35.23,22689
2025-04-04,35.93,35.93,35.93,35.93,322134
2025-04-07,36.64,36.64,36.64,36.64,129505
2025-04-08,37.37,37.37,37.37,37.37,144442
2025-04-09,38.11,38.11,38.11,38.11,68391
2025-04-11,38.87,38.87,38.87,38.87,61330
2025-04-15,39.64,39.64,39.64,39.64,54885
2025-04-16,40.43,40.43,40.43,40.43,601527
2025-04-17,41.23,41.23,41.23,41.23,244766
2025-04-21,41.88,41.88,40.41,40.41,69489
2025-04-22,39.61,39.61,39.61,39.61,10295
2025-04-23,38.82,38.82,38.82,38.82,44784
2025-04-24,38.05,38.05,38.05,38.05,70353
2025-04-25,37.29,37.29,37.29,37.29,16260
2025-04-28,38.0,38.0,36.55,36.55,102018
2025-04-29,35.82,35.82,35.82,35.82,27608
2025-04-30,35.11,35.11,35.11,35.11,12251
2025-05-02,34.41,34.41,34.41,34.41,8020
2025-05-05,32.69,34.13,32.69,32.69,174590
2025-05-06,31.06,31.06,31.06,31.06,26210
2025-05-07,29.55,32.6,29.51,30.58,57925
2025-05-08,32.1,32.1,32.1,32.1,13255
2025-05-09,30.5,33.7,30.5,33.7,53445
2025-05-12,34.69,35.38,34.69,35.38,2200
2025-05-13,37.14,37.14,37.14,37.14,4365
2025-05-14,38.99,38.99,36.0,37.43,283881
2025-05-15,36.69,36.69,36.69,36.69,56946
2025-05-16,37.15,37.4,37.15,37.4,52423
2025-05-19,36.69,38.14,36.69,37.9,74418
2025-05-20,38.5,38.65,38.3,38.65,187235
2025-05-21,39.42,39.42,39.42,39.42,83045
2025-05-22,40.2,40.2,40.2,40.2,72996
2025-05-23,41.0,41.0,41.0,41.0,48322
2025-05-26,41.82,41.82,41.82,41.82,13429
2025-05-27,42.65,42.65,42.65,42.65,15643
2025-05-28,43.5,43.5,43.45,43.45,33261
2025-05-29,44.31,44.31,44.31,44.31,91928
2025-05-30,45.19,45.19,43.43,43.43,891215
2025-06-02,42.57,42.57,42.57,42.57,9509
2025-06-03,41.72,41.72,41.72,41.72,2530
2025-06-04,40.89,40.89,40.89,40.89,3107
2025-06-05,40.08,40.08,40.08,40.08,961
2025-06-06,39.28,39.28,39.28,39.28,36
2025-06-09,38.5,40.0,38.5,39.64,138117
2025-06-10,38.85,38.85,38.85,38.85,4730
2025-06-11,38.08,38.1,38.08,38.08,10353
2025-06-12,37.32,37.32,37.32,37.32,52840
2025-06-13,36.58,36.58,36.58,36.58,722
2025-06-16,35.85,35.85,35.85,35.85,1416
2025-06-17,35.14,35.14,35.14,35.14,2056
2025-06-18,34.44,35.84,34.44,34.44,31806
2025-06-19,33.76,33.76,33.76,33.76,104352
2025-06-20,33.09,33.09,33.09,33.09,98
2025-06-23,31.44,31.44,31.44,31.44,15119
2025-06-24,29.87,33.01,29.87,31.04,267935
2025-06-25,31.48,32.35,30.0,32.02,17081
2025-06-26,33.5,33.5,31.21,31.54,7242
2025-06-27,31.54,33.1,31.2,33.0,13927
2025-06-30,33.0,34.65,33.0,34.65,26883
2025-07-01,33.3,36.38,33.3,35.42,13549
2025-07-02,34.78,36.0,33.65,34.74,27570
2025-07-03,33.35,34.0,33.01,33.01,13692
2025-07-04,32.67,32.67,31.36,31.96,10479
2025-07-07,30.6,32.9,30.6,31.37,2102
2025-07-08,32.2,32.2,31.1,31.97,3937
2025-07-09,32.32,32.87,31.5,31.5,1122
2025-07-10,31.51,32.39,31.26,31.48,4144
2025-07-11,31.5,31.8,31.35,31.58,7066
2025-07-14,32.0,32.35,31.1,31.5,6075
2025-07-15,31.5,32.5,31.06,32.15,5809
2025-07-16,32.0,33.75,32.0,33.75,42239
2025-07-17,35.0,35.43,33.15,35.43,179807
2025-07-18,34.7,37.2,34.7,37.2,119626
2025-07-21,37.5,37.75,35.34,35.64,127861
2025-07-22,34.93,34.93,34.93,34.93,13526
2025-07-23,34.24,34.24,34.24,34.24,7272
2025-07-24,33.56,33.56,33.56,33.56,11918
2025-07-25,32.89,32.9,32.89,32.89,662
2025-07-28,32.24,33.4,32.24,33.4,3764
2025-07-29,32.74,33.0,32.74,33.0,7851
2025-07-30,33.66,33.66,33.5,33.66,4502
2025-07-31,33.05,33.45,32.99,33.45,10695
2025-08-01,33.6,33.7,33.6,33.67,2707
2025-08-04,33.0,33.5,33.0,33.5,662
2025-08-05,34.17,34.17,34.17,34.17,3900
2025-08-06,34.85,34.85,33.51,33.53,2601
2025-08-07,33.53,33.53,33.53,33.53,9
2025-08-08,32.86,33.0,32.86,33.0,10234
2025-08-11,33.1,33.66,33.0,33.0,13434
2025-08-12,33.5,33.5,32.9,32.9,7128
2025-08-13,32.25,32.25,32.25,32.25,56
2025-08-14,32.0,32.0,31.62,31.62,590
2025-08-18,31.0,31.0,30.99,30.99,3408
2025-08-19,30.4,31.6,30.4,31.6,163928
2025-08-20,31.2,32.23,31.2,31.9,18571
2025-08-21,32.49,32.53,32.2,32.53,21254
2025-08-22,33.18,33.18,33.18,33.18,6706
2025-08-25,33.5,33.84,33.0,33.0,16417
2025-08-26,33.0,33.0,32.34,32.34,102
2025-08-28,31.7,31.7,31.7,31.7,3889
2025-08-29,31.07,31.69,31.07,31.69,3950
2025-09-01,31.37,32.2,30.11,30.73,3313
2025-09-02,30.73,31.0,29.62,30.08,8118
2025-09-03,30.51,30.51,29.31,30.0,17072
2025-09-04,29.1,31.0,29.1,30.25,8553
2025-09-05,30.25,30.9,29.0,29.39,7333
2025-09-08,30.52,30.85,30.0,30.49,5820
2025-09-09,30.15,30.18,29.32,30.1,1646
2025-09-10,29.3,31.55,29.02,30.35,7996
2025-09-11,30.35,31.2,30.01,30.98,3804
2025-09-12,30.98,32.0,29.51,31.48,19867
2025-09-15,32.01,37.77,32.01,33.79,429429
2025-09-16,34.2,35.66,33.6,34.92,13529
2025-09-17,34.5,34.6,32.5,32.96,17312
2025-09-18,32.57,36.0,32.32,34.46,13995
2025-09-19,33.41,35.7,32.98,34.72,16740
2025-09-22,32.2,34.47,32.2,33.12,10297
2025-09-23,32.8,34.45,32.49,32.84,17205
2025-09-24,33.7,33.7,32.05,32.11,4894
2025-09-25,34.5,34.5,31.6,31.86,8829
2025-09-26,31.9,33.46,31.02,31.26,10319
2025-09-29,31.05,32.66,30.95,30.97,22080
2025-09-30,31.36,31.94,30.87,30.87,3184
2025-10-01,30.5,31.23,29.85,30.51,10371
2025-10-03,30.82,33.55,30.82,32.89,6386
2025-10-06,33.21,33.94,32.64,32.66,1722
2025-10-07,32.0,32.76,32.0,32.31,198
2025-10-08,32.31,32.9,31.46,31.66,5950
2025-10-09,30.51,33.0,30.51,31.73,1781
2025-10-10,31.45,32.18,31.24,31.56,4631
2025-10-13,31.33,31.33,30.04,30.31,2943
2025-10-14,30.65,30.78,30.0,30.25,8895
2025-10-15,29.94,30.85,29.52,29.9,2506
2025-10-16,30.21,32.5,30.21,31.1,31885
2025-10-17,30.36,30.36,29.56,29.78,6417
2025-10-20,28.8,30.19,28.8,29.87,3804
2025-10-21,29.57,29.74,29.57,29.74,66
2025-10-23,29.44,30.06,29.44,29.81,2906
2025-10-24,29.6,30.0,29.6,29.93,3258
2025-10-27,29.03,29.93,27.9,29.67,3277
2025-10-28,29.95,29.95,29.3,29.91,7144
2025-10-29,29.35,29.75,29.35,29.53,710
2025-10-30,27.91,30.18,27.91,30.0,2714
2025-10-31,29.89,29.97,29.3,29.3,1305
2025-11-03,29.3,29.31,29.2,29.3,257
2025-11-04,29.3,29.3,28.29,28.32,6558
2025-11-06,28.0,28.64,28.0,28.64,492
2025-11-07,28.0,28.57,27.05,28.31,969
2025-11-10,28.31,29.29,27.6,29.25,7918
2025-11-11,28.5,28.97,28.5,28.66,934
2025-11-12,28.75,28.93,28.4,28.8,54871
2025-11-13,28.61,29.31,28.5,29.2,34586
2025-11-14,29.0,29.5,28.75,29.36,1625
2025-11-17,29.79,30.0,29.5,29.69,5250
2025-11-18,29.75,30.0,29.57,29.57,42928
2025-11-19,30.94,31.12,29.6,29.69,2418
2025-11-20,30.0,30.1,29.45,29.45,2571
2025-11-21,29.5,30.0,28.72,29.12,11892
2025-11-24,28.7,29.3,28.0,28.4,9631
2025-11-25,28.4,29.04,28.4,28.48,3158
2025-11-26,29.7,29.7,28.3,29.01,78012
2025-11-27,29.37,30.25,28.96,30.01,5833
2025-11-28,29.9,30.75,29.6,30.21,5797
2025-12-01,30.2,31.05,29.24,29.71,2513
2025-12-02,29.6,30.2,29.6,29.74,7348
2025-12-03,29.76,30.26,29.4,29.4,6069
2025-12-04,29.4,30.4,29.4,29.92,153
2025-12-05,29.89,30.61,29.66,30.0,2034
2025-12-08,29.7,30.0,29.7,30.0,84
2025-12-09,29.7,30.75,29.3,30.31,1798
2025-12-10,30.6,31.36,30.53,30.91,5658
2025-12-11,33.2,33.2,31.34,31.6,1955
2025-12-12,32.37,32.37,30.75,31.35,1040
2025-12-15,32.9,32.9,30.51,30.99,1496
2025-12-16,31.59,31.59,30.81,30.93,1418
2025-12-17,31.11,31.11,30.47,30.53,22705
2025-12-18,31.0,31.0,30.09,30.19,905
2025-12-19,30.61,30.61,30.5,30.5,311
2025-12-22,30.5,31.26,30.5,31.03,344
2025-12-23,31.09,31.24,30.56,31.2,62
2025-12-24,31.69,31.8,30.99,31.19,4200
2025-12-26,31.19,32.3,30.96,31.5,2854
2025-12-29,32.26,33.9,32.0,32.4,21759
2025-12-30,29.65,32.43,29.65,31.75,6238
2025-12-31,31.85,34.65,31.85,33.38,7211
2026-01-01,32.42,32.87,31.6,31.61,5324
2026-01-02,31.61,32.0,31.53,31.8,7989
2026-01-05,31.67,33.33,31.64,31.75,2104
2026-01-06,32.17,32.17,31.05,31.05,74
2026-01-07,31.05,32.09,31.0,31.1,6006
2026-01-08,31.1,31.59,30.65,30.65,1786
2026-01-09,31.84,32.2,30.76,30.86,3119
2026-01-12,30.55,31.12,29.89,30.4,2568
2026-01-13,32.98,32.98,30.35,30.95,534
2026-01-14,30.9,31.0,30.25,30.25,1552
2026-01-16,31.0,31.02,30.78,30.83,203
2026-01-19,31.25,35.09,30.5,34.26,15942
2026-01-20,34.35,34.86,30.08,30.65,17861
2026-01-21,30.29,31.5,30.02,31.04,3797
2026-01-22,31.04,31.67,30.9,30.99,882
2026-01-23,30.9,30.9,30.5,30.51,225
2026-01-27,30.51,31.1,30.2,30.99,1198
2026-01-28,30.68,31.44,30.3,30.84,324
2026-01-29,31.0,31.2,30.5,31.2,341
2026-01-30,30.9,31.24,30.07,30.31,6182
2026-02-01,30.0,31.65,30.0,31.28,11815
2026-02-02,31.28,31.28,30.3,30.5,2702
2026-02-03,30.5,30.51,30.5,30.51,150
2026-02-04,30.75,30.77,30.51,30.77,574
2026-02-05,30.34,30.34,30.0,30.0,569
2026-02-06,30.0,30.79,30.0,30.79,353
2026-02-09,30.0,31.1,30.0,30.33,1615
2026-02-10,32.9,32.9,30.52,30.86,2296
2026-02-11,30.38,30.9,30.3,30.55,975
2026-02-12,30.24,31.46,30.24,30.8,94
2026-02-13,30.49,31.0,30.21,30.21,538
2026-02-16,30.03,31.32,30.0,31.22,1899
2026-02-17,31.21,31.7,31.08,31.1,3116
2026-02-18,25.51,31.44,25.51,30.7,186
2026-02-19,30.71,30.75,30.61,30.61,239
2026-02-20,31.28,31.28,30.65,30.87,555
2026-02-23,31.1,32.0,30.75,31.8,5735
2026-02-24,31.0,34.9,31.0,34.53,70120
2026-02-25,34.54,40.25,34.54,37.11,68425
2026-02-26,37.4,38.9,35.49,38.69,15285
2026-02-27,38.68,40.2,34.35,36.11,29762
2026-03-02,31.25,34.59,31.25,33.14,4765
2026-03-04,33.1,35.0,32.7,33.87,7645
2026-03-05,33.95,34.47,32.81,34.28,5424
2026-03-06,35.39,38.76,35.39,36.04,13835
2026-03-09,36.8,36.8,34.0,34.59,18314
2026-03-10,34.13,41.5,34.13,38.83,58878
2026-03-11,38.83,42.0,37.0,39.29,53867
2026-03-12,38.65,39.56,35.24,36.07,25700
2026-03-13,36.97,36.97,35.6,36.17,10903
2026-03-16,35.95,36.41,34.0,35.25,59673
2026-03-17,35.01,35.98,34.05,34.21,4477
2026-03-18,34.08,35.1,34.05,34.37,3149
2026-03-19,33.62,34.67,33.5,33.99,3784
2026-03-20,33.67,33.86,32.76,33.21,4166
2026-03-23,32.85,32.85,29.95,30.07,7091
2026-03-24,28.65,31.55,28.65,31.0,7097
2026-03-25,31.85,31.85,31.0,31.07,2363
2026-03-27,30.07,31.02,30.07,30.25,7688
2026-03-30,30.37,30.37,28.67,29.14,2961
2026-04-01,29.0,31.39,29.0,30.68,3192
2026-04-02,30.35,30.99,30.0,30.3,7793
2026-04-06,30.5,30.66,30.0,30.25,10064
2026-04-07,30.25,30.5,30.21,30.32,1071
2026-04-08,30.8,31.98,30.35,30.45,12678
2026-04-09,30.39,30.83,30.33,30.7,587
2026-04-10,30.93,33.4,30.93,33.0,7646
2026-04-13,34.4,34.48,32.57,34.0,16847
2026-04-15,35.04,35.56,34.21,34.82,8753
2026-04-16,35.69,35.69,34.67,34.7,934
2026-04-17,34.35,36.0,34.35,35.69,23477
2026-04-20,35.7,35.9,33.13,33.38,3486
2026-04-21,34.21,34.21,33.0,33.5,2239
2026-04-22,33.5,34.19,33.14,33.95,2628
2026-04-23,34.0,34.0,32.89,33.0,1097
2026-04-24,32.8,33.19,32.02,32.06,1262
2026-04-27,31.73,32.87,31.5,31.65,1824
2026-04-28,32.4,32.4,31.39,31.65,546
2026-04-29,31.02,33.98,31.02,32.06,2742
2026-04-30,32.08,32.6,32.02,32.6,51
2026-05-04,31.8,32.75,31.78,31.85,5508
