Datetime,Open,High,Low,Close,Volume
2016-06-02,25.2,25.6,23.15,24.75,165333
2016-06-03,25.25,25.25,24.2,24.25,42450
2016-06-06,23.45,26.2,23.45,25.0,87886
2016-06-07,25.0,25.0,23.8,24.6,26249
2016-06-08,24.5,25.0,24.05,24.45,78500
2016-06-09,24.35,25.2,24.35,24.9,48448
2016-06-10,25.0,25.5,24.2,24.55,75612
2016-06-13,24.5,24.5,23.5,23.95,20179
2016-06-14,24.6,24.6,24.0,24.15,21249
2016-06-15,24.3,26.3,23.85,25.65,266806
2016-06-16,25.3,25.7,24.4,25.25,72596
2016-06-17,24.95,25.65,24.55,25.25,63364
2016-06-20,25.0,25.3,24.55,25.15,26593
2016-06-21,25.2,25.2,24.6,25.0,37847
2016-06-22,24.95,25.25,24.65,24.75,27902
2016-06-23,24.5,25.0,24.4,24.7,28283
2016-06-24,24.5,24.9,23.4,24.6,29649
2016-06-27,25.0,25.0,24.05,24.5,15239
2016-06-28,24.5,25.45,23.9,24.05,21787
2016-06-29,24.15,24.5,23.75,24.1,43296
2016-06-30,26.5,27.95,24.55,26.15,278630
2016-07-01,26.5,27.3,26.0,26.35,99838
2016-07-04,25.9,26.95,25.5,26.4,36329
2016-07-05,26.0,26.45,25.75,25.9,43908
2016-07-07,25.8,26.3,25.55,25.7,15555
2016-07-08,26.0,26.0,25.5,25.55,16489
2016-07-11,25.5,26.0,25.2,25.9,45376
2016-07-12,25.6,26.35,25.5,25.8,46470
2016-07-13,25.3,26.5,25.3,25.8,28351
2016-07-14,25.5,26.25,25.5,25.7,52425
2016-07-15,25.5,26.3,25.1,25.55,31820
2016-07-18,25.5,26.0,25.05,25.2,21082
2016-07-19,25.1,25.55,24.15,24.45,60524
2016-07-20,24.45,24.85,24.0,24.15,25296
2016-07-21,24.0,24.65,23.5,24.0,23853
2016-07-22,24.0,25.4,23.5,24.25,66963
2016-07-25,24.5,25.0,23.75,24.0,122326
2016-07-26,24.2,24.65,24.0,24.05,39766
2016-07-27,24.1,24.65,23.95,24.0,26206
2016-07-28,23.7,24.55,23.3,23.85,27765
2016-07-29,23.8,24.3,23.75,23.85,27498
2016-08-01,23.7,24.4,23.7,24.0,19801
2016-08-02,23.7,24.1,23.5,23.85,27124
2016-08-03,23.85,24.0,23.3,23.5,15817
2016-08-04,23.3,24.15,23.3,23.8,7115
2016-08-05,23.3,24.0,23.3,23.55,8010
2016-08-08,23.0,25.0,23.0,23.65,11213
2016-08-09,23.8,23.95,23.35,23.75,9577
2016-08-10,23.5,25.0,23.35,23.45,62970
2016-08-11,21.4,23.75,21.4,23.05,44163
2016-08-12,23.85,23.85,23.35,23.5,15359
2016-08-16,23.3,23.95,23.3,23.5,8420
2016-08-17,23.4,23.4,23.05,23.1,13441
2016-08-18,23.0,23.5,22.25,22.6,25478
2016-08-19,23.0,23.25,22.5,22.8,11306
2016-08-22,22.6,24.8,22.6,23.6,54698
2016-08-23,23.5,23.6,22.85,23.25,15870
2016-08-24,23.15,24.5,22.6,23.85,23552
2016-08-25,23.35,26.4,23.1,25.05,250527
2016-08-26,25.75,25.9,24.15,25.55,89336
2016-08-29,25.4,25.45,24.4,24.6,26231
2016-08-30,24.6,25.0,24.2,24.55,14841
2016-08-31,24.3,24.9,23.8,24.05,30539
2016-09-01,24.0,24.45,23.2,23.6,17383
2016-09-02,23.55,24.4,23.55,24.05,58971
2016-09-06,24.5,25.0,23.9,24.55,30053
2016-09-07,24.8,28.9,24.8,27.2,517002
2016-09-08,26.9,28.75,26.7,27.9,218096
2016-09-09,27.35,27.35,25.0,26.0,242148
2016-09-12,25.8,27.3,24.6,25.4,107788
2016-09-14,25.15,28.85,24.5,26.9,364697
2016-09-15,27.75,27.8,26.0,26.5,58366
2016-09-16,27.0,29.8,26.0,27.2,486847
2016-09-19,27.2,28.25,27.2,27.5,65659
2016-09-20,27.75,27.95,26.0,26.3,78714
2016-09-21,26.95,26.95,25.7,26.0,37885
2016-09-22,26.0,28.75,26.0,26.75,307076
2016-09-23,27.15,27.3,26.3,26.6,25359
2016-09-26,26.6,27.1,26.6,26.75,31546
2016-09-27,26.3,27.95,25.7,25.95,46566
2016-09-28,25.9,27.6,25.9,26.2,93103
2016-09-29,26.2,26.95,24.0,25.1,99872
2016-09-30,26.0,26.0,24.5,25.5,8390
2016-10-03,25.45,26.95,25.35,25.7,38413
2016-10-04,25.5,26.75,24.55,26.4,49358
2016-10-05,26.35,27.0,25.8,26.15,49770
2016-10-06,26.2,27.0,24.0,25.0,115030
2016-10-07,25.65,27.4,25.05,26.2,242141
2016-10-10,26.65,29.0,26.1,27.25,561900
2016-10-13,26.55,28.45,26.55,27.55,175311
2016-10-14,27.6,30.0,27.6,28.8,512192
2016-10-17,29.6,29.75,27.9,28.15,141974
2016-10-18,28.1,28.7,27.5,27.9,66308
2016-10-19,28.3,28.5,27.6,27.9,44737
2016-10-20,27.85,28.9,27.45,27.75,65374
2016-10-21,27.5,28.4,27.45,27.6,32594
2016-10-24,27.55,28.65,27.45,27.75,38289
2016-10-25,27.8,29.7,27.65,29.0,131026
2016-10-26,29.0,29.3,28.0,28.15,48606
2016-10-27,28.3,28.7,27.8,28.25,44380
2016-10-28,28.0,28.5,27.5,28.05,19137
2016-10-30,28.5,28.6,28.0,28.15,15769
2016-11-01,28.2,30.4,28.1,29.95,261686
2016-11-02,29.5,31.1,29.1,30.1,297262
2016-11-03,30.65,35.4,29.75,34.2,1023147
2016-11-04,34.25,36.2,31.85,32.5,323969
2016-11-07,33.4,34.3,32.05,32.8,91451
2016-11-08,32.8,33.9,32.0,32.85,66920
2016-11-09,30.0,32.05,27.55,31.5,217071
2016-11-10,32.6,34.15,30.8,31.3,69878
2016-11-11,31.5,31.5,29.1,29.7,97190
2016-11-15,32.25,32.25,28.15,28.55,60379
2016-11-16,28.35,29.7,28.0,28.2,37034
2016-11-17,28.0,28.35,27.0,27.25,44950
2016-11-18,28.4,28.75,26.9,27.25,29968
2016-11-21,27.0,27.5,25.5,26.15,72464
2016-11-22,26.5,28.0,26.5,27.75,34292
2016-11-23,29.4,29.4,28.0,29.0,38665
2016-11-24,28.95,29.0,28.25,28.95,26052
2016-11-25,28.35,30.1,28.35,29.0,16380
2016-11-28,30.0,30.0,28.3,28.95,11721
2016-11-29,29.0,30.9,29.0,29.9,28342
2016-11-30,31.0,33.1,30.65,31.65,151026
2016-12-01,32.0,32.0,29.7,29.85,54426
2016-12-02,30.45,30.45,28.65,29.15,20714
2016-12-05,29.0,29.75,28.1,28.6,48454
2016-12-06,28.4,32.05,28.4,29.85,179602
2016-12-07,29.85,30.5,28.7,29.25,25906
2016-12-08,34.0,35.1,33.6,35.1,1268103
2016-12-09,37.0,37.0,34.4,35.25,889925
2016-12-12,34.2,35.0,33.5,33.95,223673
2016-12-13,33.05,35.0,32.15,32.7,390552
2016-12-14,32.35,37.1,32.25,34.75,883837
2016-12-15,33.6,37.4,33.6,36.3,566725
2016-12-16,36.7,37.8,35.1,35.4,299360
2016-12-19,36.8,36.8,35.1,35.25,117238
2016-12-20,34.9,35.85,33.8,34.05,123979
2016-12-21,35.0,35.0,33.2,33.75,43150
2016-12-22,34.4,34.5,32.95,33.15,60987
2016-12-23,33.0,33.65,32.0,32.9,65887
2016-12-26,32.6,34.0,32.15,32.8,100930
2016-12-27,32.85,33.8,32.0,32.95,109624
2016-12-28,33.25,34.2,33.0,33.3,85873
2016-12-29,33.0,34.15,32.6,33.8,62392
2016-12-30,33.85,35.3,33.8,34.6,126599
2017-01-02,34.65,36.2,34.65,35.3,133394
2017-01-03,35.75,35.85,34.6,35.15,118761
2017-01-04,35.2,37.7,35.15,37.35,429340
2017-01-05,37.1,39.4,37.05,38.7,504048
2017-01-06,38.7,39.1,37.5,37.8,131052
2017-01-09,37.9,38.65,36.5,37.9,58100
2017-01-10,38.8,38.8,37.45,37.95,62187
2017-01-11,38.1,41.0,38.1,39.95,521142
2017-01-12,39.6,40.4,38.2,38.4,88258
2017-01-13,38.1,38.6,38.05,38.25,39624
2017-01-16,40.0,40.0,38.35,38.5,31032
2017-01-17,38.55,39.0,37.4,37.85,57753
2017-01-18,37.6,40.35,37.1,38.45,214678
2017-01-19,39.25,39.3,37.7,38.3,91960
2017-01-20,38.1,38.5,37.3,37.45,54924
2017-01-23,37.4,38.45,36.7,37.6,28527
2017-01-24,38.0,38.0,37.0,37.2,37219
2017-01-25,36.9,37.7,35.3,36.75,210826
2017-01-27,36.5,37.25,35.75,36.05,64261
2017-01-30,35.5,36.4,31.7,32.3,359371
2017-01-31,32.7,34.8,32.35,33.0,114120
2017-02-01,32.5,33.9,32.1,32.95,74176
2017-02-02,33.0,34.2,32.8,33.5,49581
2017-02-03,33.3,34.0,32.3,33.75,48751
2017-02-06,34.25,35.9,33.75,34.7,132671
2017-02-07,36.5,36.5,34.5,34.6,45924
2017-02-08,34.6,35.35,34.25,34.35,33670
2017-02-09,34.5,37.2,34.25,36.0,330219
2017-02-10,37.0,37.5,35.4,36.05,121000
2017-02-13,36.0,36.8,35.35,35.6,32118
2017-02-14,35.65,36.2,35.15,35.3,22880
2017-02-15,35.0,35.0,33.7,33.85,42469
2017-02-16,34.5,34.5,33.4,33.8,31395
2017-02-17,34.1,34.1,33.3,33.7,19415
2017-02-20,33.5,34.5,33.1,33.85,38342
2017-02-21,34.0,34.8,33.5,33.6,32112
2017-02-22,34.0,34.0,32.1,32.55,42701
2017-02-23,32.9,33.5,31.6,31.9,48206
2017-02-27,31.95,32.5,31.75,32.05,41218
2017-02-28,32.0,32.45,31.8,32.2,20527
2017-03-01,32.0,33.5,31.9,32.95,42886
2017-03-02,32.7,34.85,32.25,33.55,282174
2017-03-03,33.95,34.2,32.6,33.65,48641
2017-03-06,33.2,33.5,32.25,32.45,70065
2017-03-07,32.2,32.9,32.0,32.3,28368
2017-03-08,32.1,32.5,31.65,31.7,20610
2017-03-09,31.55,31.95,30.75,31.1,111195
2017-03-10,30.65,31.85,30.65,31.3,25269
2017-03-14,32.45,32.45,31.0,31.4,69497
2017-03-15,31.35,32.4,31.35,31.9,37445
2017-03-16,32.05,32.8,31.85,32.0,42807
2017-03-17,32.0,32.6,31.85,31.9,29016
2017-03-20,32.9,32.9,31.7,32.0,9432
2017-03-21,31.85,32.3,31.8,32.05,54836
2017-03-22,31.7,32.5,31.25,31.3,21092
2017-03-23,31.2,32.9,31.05,32.35,60328
2017-03-24,32.0,34.4,32.0,32.8,90614
2017-03-27,33.25,34.0,32.4,32.6,65253
2017-03-28,32.55,34.0,32.15,32.35,36787
2017-03-29,32.5,33.0,31.5,31.75,86414
2017-03-30,32.3,33.4,32.3,33.3,59919
2017-03-31,33.7,33.9,31.9,32.85,107805
2017-04-03,32.85,33.25,32.75,32.85,56778
2017-04-05,32.7,34.0,32.3,32.6,95408
2017-04-06,32.6,33.3,32.6,33.0,41491
2017-04-07,33.45,33.45,31.0,31.55,117998
2017-04-10,31.9,32.6,31.85,32.25,84074
2017-04-11,32.25,32.7,31.95,32.25,29988
2017-04-12,32.3,33.0,31.0,31.6,92493
2017-04-13,31.6,32.0,31.2,31.3,75729
2017-04-17,31.25,31.95,30.7,30.8,112335
2017-04-18,31.0,31.35,29.8,30.0,105737
2017-04-19,30.0,30.1,29.7,29.95,55994
2017-04-20,30.0,30.4,29.75,30.0,131865
2017-04-21,30.5,31.3,30.3,30.65,61985
2017-04-24,30.5,31.4,29.75,29.95,126121
2017-04-25,29.8,30.0,28.1,28.7,247725
2017-04-26,28.7,30.0,28.5,28.95,128261
2017-04-27,29.0,29.4,28.65,29.0,38237
2017-04-28,29.4,29.4,28.55,29.0,33101
2017-05-02,29.45,30.5,28.6,29.2,108518
2017-05-03,29.1,29.25,28.8,28.95,18089
2017-05-04,28.65,29.65,28.65,29.15,39573
2017-05-05,28.9,29.35,28.65,28.9,32220
2017-05-08,28.75,30.8,28.7,29.15,157630
2017-05-09,29.15,29.6,29.0,29.4,28023
2017-05-10,29.4,33.5,29.1,30.7,461218
2017-05-11,31.0,32.4,31.0,31.2,251883
2017-05-12,31.35,31.6,30.5,31.15,52688
2017-05-15,31.15,31.9,29.7,29.95,56623
2017-05-16,30.0,30.4,29.5,29.75,33885
2017-05-17,29.1,30.15,29.1,29.6,50569
2017-05-18,29.35,30.45,29.05,29.15,34463
2017-05-19,29.25,29.9,28.7,28.9,32480
2017-05-22,29.0,29.45,28.25,28.65,20624
2017-05-23,29.0,29.0,27.1,28.05,52037
2017-05-24,28.05,28.55,26.8,27.35,63868
2017-05-25,27.05,28.55,27.0,28.4,23243
2017-05-26,28.5,29.75,28.2,28.75,58611
2017-05-29,28.65,29.3,28.65,28.95,24207
2017-05-30,27.4,28.65,27.1,27.6,28570
2017-05-31,27.5,28.25,27.5,27.85,13739
2017-06-01,28.0,28.1,27.15,27.25,30038
2017-06-02,27.55,27.85,27.25,27.45,17591
2017-06-05,27.5,28.2,27.5,27.6,20677
2017-06-06,27.6,27.7,27.25,27.3,13478
2017-06-07,27.25,27.75,27.0,27.1,19473
2017-06-08,27.1,27.5,26.1,26.3,41556
2017-06-09,26.1,28.65,26.1,26.95,45742
2017-06-12,27.0,27.15,26.4,26.95,18706
2017-06-13,27.0,28.6,26.6,27.95,142287
2017-06-14,27.7,28.1,27.0,27.1,30890
2017-06-15,27.1,27.3,26.55,26.9,17885
2017-06-16,26.8,27.1,26.5,26.75,31957
2017-06-19,26.75,27.2,26.75,26.85,15458
2017-06-20,27.15,27.15,26.55,26.7,24330
2017-06-21,26.65,26.75,26.5,26.55,9485
2017-06-22,26.65,27.15,26.45,26.5,62694
2017-06-23,26.5,26.9,25.5,25.95,27803
2017-06-27,26.85,26.85,24.85,25.0,37173
2017-06-28,24.8,25.8,24.25,24.45,40660
2017-06-29,24.5,24.9,23.75,24.55,45965
2017-06-30,24.25,25.1,23.95,24.1,44551
2017-07-03,24.15,24.7,24.15,24.35,8615
2017-07-04,24.3,24.95,24.15,24.65,14596
2017-07-05,24.7,25.65,24.7,25.15,16122
2017-07-06,25.95,25.95,24.6,25.15,17717
2017-07-07,25.05,25.7,24.6,25.25,34453
2017-07-10,24.8,25.75,24.8,25.1,8351
2017-07-11,24.85,25.75,24.1,24.6,13895
2017-07-12,24.6,25.15,24.5,24.6,14308
2017-07-13,24.6,25.0,24.5,24.55,37474
2017-07-14,24.5,25.15,24.5,24.95,17637
2017-07-17,25.0,25.75,24.8,25.6,39145
2017-07-18,25.35,25.6,24.5,24.85,41632
2017-07-19,24.75,25.1,24.25,24.4,18944
2017-07-20,24.7,25.15,24.45,24.9,26055
2017-07-21,24.8,25.0,24.0,24.75,16730
2017-07-24,24.75,25.2,24.75,24.8,24326
2017-07-25,25.5,25.5,24.3,24.8,51248
2017-07-26,24.65,25.0,24.45,24.55,38857
2017-07-27,24.55,24.6,23.45,23.7,133535
2017-07-28,24.0,24.45,23.0,23.2,108888
2017-07-31,23.2,23.7,22.95,23.0,38992
2017-08-01,23.05,23.8,22.9,23.4,90572
2017-08-02,23.1,23.45,22.8,23.05,19506
2017-08-03,23.0,23.3,22.1,22.4,37729
2017-08-04,22.3,22.5,22.0,22.05,44240
2017-08-07,22.05,22.7,21.8,21.95,43376
2017-08-08,21.95,21.95,20.75,21.0,33294
2017-08-09,22.5,22.5,20.2,20.5,42243
2017-08-10,20.3,20.45,19.5,19.6,42944
2017-08-11,19.1,20.55,18.15,19.9,33962
2017-08-14,20.1,23.85,19.55,23.65,100864
2017-08-16,23.95,27.5,22.15,27.15,356832
2017-08-17,26.5,29.7,26.5,27.9,250449
2017-08-18,27.45,28.45,26.5,27.55,95723
2017-08-21,28.4,28.4,26.25,26.65,54707
2017-08-22,27.9,27.9,24.0,24.25,73437
2017-08-23,24.7,24.9,23.1,23.85,45431
2017-08-24,23.85,24.45,23.2,23.85,22450
2017-08-28,23.9,24.6,23.0,23.55,23522
2017-08-29,24.25,24.25,23.15,23.45,3747
2017-08-30,23.55,23.55,23.1,23.2,8367
2017-08-31,23.9,23.9,22.75,22.85,25651
2017-09-01,23.0,23.75,23.0,23.55,13335
2017-09-04,24.75,24.75,23.1,24.45,20073
2017-09-05,24.45,25.6,24.45,24.5,17724
2017-09-06,24.45,24.5,23.75,23.95,17330
2017-09-07,24.05,24.35,23.8,23.8,4010
2017-09-08,24.8,24.8,23.7,24.0,3903
2017-09-11,23.9,24.4,23.4,23.7,10549
2017-09-12,23.7,24.45,23.55,23.7,10781
2017-09-13,23.55,24.35,23.5,23.65,25948
2017-09-14,24.0,24.8,23.7,23.8,24222
2017-09-15,23.5,24.9,23.0,24.6,44963
2017-09-18,24.6,25.5,24.2,24.4,12966
2017-09-19,23.7,28.5,23.65,26.85,382630
2017-09-20,27.3,27.8,25.2,26.55,172898
2017-09-21,26.5,26.5,25.4,25.6,25898
2017-09-22,25.4,25.7,23.55,24.1,71481
2017-09-25,23.6,24.6,23.0,23.7,30155
2017-09-26,23.95,24.65,23.15,24.3,14314
2017-09-27,24.35,25.2,23.65,24.2,35046
2017-09-28,24.05,24.5,24.05,24.2,15036
2017-09-29,24.5,25.7,23.4,23.6,22638
2017-10-03,23.7,24.55,22.2,23.25,25977
2017-10-04,22.15,27.9,22.15,27.8,466702
2017-10-05,29.0,29.0,25.2,25.45,189552
2017-10-06,24.9,26.35,24.9,26.05,48435
2017-10-09,25.9,26.45,25.35,25.65,54374
2017-10-10,25.6,26.15,25.0,25.55,41537
2017-10-11,25.55,25.8,24.75,25.1,27762
2017-10-12,25.0,25.4,24.5,24.85,16547
2017-10-13,25.5,27.05,24.35,25.65,87549
2017-10-16,25.4,26.0,24.0,24.55,88438
2017-10-17,25.15,26.7,24.55,26.0,53834
2017-10-18,26.0,26.9,25.25,26.3,126355
2017-10-19,26.3,27.0,25.3,25.6,20135
2017-10-23,25.5,26.25,24.5,24.95,55228
2017-10-24,25.6,25.6,25.05,25.25,19192
2017-10-25,25.75,25.75,25.05,25.35,37249
2017-10-26,25.85,25.9,24.7,25.05,72886
2017-10-27,25.65,25.65,24.95,25.1,40445
2017-10-30,25.55,25.6,24.65,25.4,23010
2017-10-31,25.0,25.65,24.7,25.2,9738
2017-11-01,25.5,26.1,25.0,25.1,29229
2017-11-02,25.45,26.5,25.15,25.65,63373
2017-11-03,26.3,27.3,25.5,25.75,111485
2017-11-06,25.75,26.55,24.8,25.65,44534
2017-11-07,25.65,26.45,24.6,24.85,93213
2017-11-08,25.7,27.0,24.55,25.8,131733
2017-11-09,26.3,26.45,25.0,25.4,30202
2017-11-10,25.5,26.45,25.3,25.65,42804
2017-11-13,25.25,28.45,25.25,27.15,212054
2017-11-14,27.0,28.9,25.75,26.3,246519
2017-11-15,26.5,26.5,24.2,24.95,105040
2017-11-16,25.45,25.75,24.75,24.95,38103
2017-11-17,24.7,25.6,24.4,25.0,45313
2017-11-20,24.75,25.4,24.75,25.0,14317
2017-11-21,25.25,25.35,24.5,24.95,21609
2017-11-22,25.0,26.9,24.5,26.2,97451
2017-11-23,26.95,27.6,26.55,26.95,232717
2017-11-24,26.95,27.4,26.05,27.05,56414
2017-11-27,27.05,27.5,26.25,26.55,66134
2017-11-28,26.55,27.5,26.3,26.55,57655
2017-11-29,26.5,26.75,26.1,26.15,20444
2017-11-30,26.0,26.75,25.25,25.95,34767
2017-12-01,25.95,26.65,25.65,25.85,65269
2017-12-04,26.5,26.5,25.25,25.3,26779
2017-12-05,25.95,26.25,24.9,25.15,21877
2017-12-06,25.15,28.45,25.0,26.15,151123
2017-12-07,26.15,27.8,26.15,26.95,91198
2017-12-08,26.95,29.4,26.85,28.0,517268
2017-12-11,28.0,30.8,28.0,29.2,730344
2017-12-12,29.5,29.5,27.6,27.9,103660
2017-12-13,27.9,29.9,26.85,27.05,176048
2017-12-14,27.55,28.2,27.0,27.6,74357
2017-12-15,28.0,28.25,27.4,27.65,58777
2017-12-18,27.2,28.4,26.85,27.5,54297
2017-12-19,27.5,29.25,27.35,27.85,101570
2017-12-20,27.85,28.5,27.7,28.0,79056
2017-12-21,28.0,29.25,28.0,28.75,118370
2017-12-22,29.25,29.45,28.5,28.65,57848
2017-12-26,28.65,30.5,28.65,29.15,123094
2017-12-27,28.9,30.15,28.7,28.8,73317
2017-12-28,29.0,29.5,28.5,28.8,61720
2017-12-29,28.8,29.8,28.8,29.15,69722
2018-01-01,29.15,34.95,29.15,34.5,1204415
2018-01-02,35.9,36.8,32.35,33.6,590874
2018-01-03,33.85,34.6,32.4,33.0,207126
2018-01-04,33.0,39.35,33.0,38.8,1339824
2018-01-05,38.2,38.65,36.25,36.65,465694
2018-01-08,37.3,38.6,36.15,37.4,378540
2018-01-09,37.1,39.0,36.2,37.85,362218
2018-01-10,37.7,39.4,36.3,36.65,207622
2018-01-11,36.9,37.5,35.6,37.15,214978
2018-01-12,37.5,38.4,36.0,37.7,332921
2018-01-15,37.9,38.6,36.75,36.9,276901
2018-01-16,37.2,38.0,36.1,36.2,324027
2018-01-17,36.2,36.45,33.7,34.95,89851
2018-01-18,35.2,36.0,34.1,34.5,125266
2018-01-19,34.75,34.75,33.25,33.75,76137
2018-01-22,34.1,34.9,33.3,33.75,69356
2018-01-23,33.9,34.4,33.4,33.7,45874
2018-01-24,33.6,33.95,32.1,32.35,65431
2018-01-25,32.65,33.3,32.05,32.55,50645
2018-01-29,32.3,33.0,30.05,30.65,114824
2018-01-30,30.65,30.65,27.9,28.35,154096
2018-01-31,28.5,29.35,27.75,28.8,70014
2018-02-01,28.5,30.1,28.35,29.8,69554
2018-02-02,29.5,29.5,28.0,28.35,76576
2018-02-05,28.0,28.0,26.4,27.55,49727
2018-02-06,26.3,29.5,24.05,28.9,834172
2018-02-07,28.9,29.7,28.2,28.6,67944
2018-02-08,28.65,31.7,28.35,30.25,149136
2018-02-09,29.2,30.4,28.5,29.75,78246
2018-02-12,30.2,31.0,29.05,29.55,288960
2018-02-14,30.0,30.4,29.0,29.25,82001
2018-02-15,29.95,29.95,28.75,28.8,36126
2018-02-16,28.7,29.4,28.0,28.25,22888
2018-02-19,27.6,29.4,27.25,28.5,168100
2018-02-20,28.2,28.45,27.5,28.05,21524
2018-02-21,28.25,28.4,27.7,27.95,9267
2018-02-22,28.0,28.3,26.55,27.15,10933
2018-02-23,27.9,29.4,27.5,28.85,40638
2018-02-26,29.4,32.5,28.35,29.15,83870
2018-02-27,29.45,29.5,28.1,28.25,16195
2018-02-28,28.0,28.75,27.7,28.15,106852
2018-03-01,28.4,28.6,27.6,27.75,34740
2018-03-05,28.1,28.3,27.1,27.45,36047
2018-03-06,28.0,28.2,26.8,27.05,49729
2018-03-07,26.5,28.0,26.25,26.95,56458
2018-03-08,26.95,26.95,26.45,26.6,18211
2018-03-09,26.25,26.95,26.0,26.5,26802
2018-03-12,26.65,27.05,26.4,26.75,20040
2018-03-13,26.5,27.9,26.45,27.4,29423
2018-03-14,27.05,30.6,27.0,30.25,128134
2018-03-15,30.15,30.5,28.5,28.65,31998
2018-03-16,28.95,30.5,28.35,28.85,69051
2018-03-19,28.85,30.5,27.5,28.95,49744
2018-03-20,28.55,28.9,27.6,28.1,51825
2018-03-21,28.9,29.4,27.6,27.7,11109
2018-03-22,28.9,29.4,27.25,27.35,27394
2018-03-23,26.1,27.45,26.05,26.25,48159
2018-03-26,26.25,26.8,25.0,25.55,246278
2018-03-27,25.8,26.0,25.0,25.25,90734
2018-03-28,25.5,25.75,24.5,24.55,53053
2018-04-02,25.45,25.7,24.6,24.8,68222
2018-04-03,24.7,25.55,24.05,24.9,212043
2018-04-04,25.85,27.35,25.15,25.6,52601
2018-04-05,25.75,27.75,25.6,27.05,125111
2018-04-06,27.65,27.7,26.5,27.2,24821
2018-04-09,27.0,28.0,26.6,27.1,108350
2018-04-10,27.1,27.75,26.6,27.2,40344
2018-04-11,27.2,27.7,25.9,26.4,85472
2018-04-12,26.3,27.25,26.05,26.15,116092
2018-04-13,26.45,28.1,26.4,27.4,142960
2018-04-16,27.2,27.5,26.15,26.4,98479
2018-04-17,27.2,27.2,26.65,26.85,22964
2018-04-18,27.0,27.25,26.6,26.8,10815
2018-04-19,26.8,27.15,26.75,27.0,13237
2018-04-20,27.0,27.7,26.55,26.8,6821
2018-04-23,27.25,27.35,26.0,26.65,60102
2018-04-24,27.0,27.7,26.35,26.85,67272
2018-04-25,26.85,27.3,26.0,26.05,81962
2018-04-26,26.05,26.9,25.6,26.45,24854
2018-04-27,27.0,27.5,26.25,27.1,39215
2018-04-30,27.5,27.75,27.15,27.55,43476
2018-05-02,28.6,28.6,26.3,26.4,33957
2018-05-03,27.3,27.3,26.0,26.5,23307
2018-05-04,27.25,27.75,26.35,27.7,38549
2018-05-07,27.5,28.7,27.15,28.5,52133
2018-05-08,28.5,29.0,27.55,28.25,48730
2018-05-09,28.25,28.75,27.35,27.45,50899
2018-05-10,27.45,28.6,27.0,27.15,36529
2018-05-11,27.15,27.15,26.8,27.05,18827
2018-05-14,27.7,27.7,26.55,26.7,11094
2018-05-15,26.7,27.1,26.25,26.6,11669
2018-05-16,26.6,26.7,26.1,26.35,10927
2018-05-17,27.4,27.4,26.4,27.0,17278
2018-05-18,27.0,27.05,26.6,26.7,6469
2018-05-21,26.75,27.15,24.45,24.95,45497
2018-05-22,25.0,25.7,24.05,24.25,73614
2018-05-23,24.75,24.95,24.2,24.45,32052
2018-05-24,24.4,24.6,23.7,24.1,41146
2018-05-25,23.95,24.4,23.9,24.35,8010
2018-05-28,24.35,25.25,23.9,24.7,51292
2018-05-29,24.65,25.3,24.65,25.1,23611
2018-05-30,25.1,25.8,24.65,25.45,42015
2018-05-31,25.0,25.2,24.3,24.4,22579
2018-06-01,24.25,24.65,23.5,23.6,14027
2018-06-04,23.75,24.0,21.0,22.15,90424
2018-06-05,21.8,22.3,21.5,22.25,17796
2018-06-06,22.05,22.4,21.15,22.2,14167
2018-06-07,22.5,22.7,22.5,22.5,7769
2018-06-08,22.15,22.35,21.25,21.85,42515
2018-06-11,21.8,21.95,20.2,21.55,47887
2018-06-12,21.8,23.0,21.75,22.35,33910
2018-06-13,22.55,23.5,22.5,23.35,21124
2018-06-14,22.55,24.0,22.55,23.65,31099
2018-06-15,23.65,23.7,23.2,23.25,10224
2018-06-18,23.25,23.5,22.7,23.3,10124
2018-06-19,23.0,23.0,22.45,22.55,5262
2018-06-20,22.6,22.75,22.0,22.25,8592
2018-06-21,22.1,22.75,22.0,22.3,6777
2018-06-22,22.2,22.5,22.1,22.3,12025
2018-06-25,21.5,23.25,21.5,23.0,13308
2018-06-26,22.9,22.9,22.55,22.7,8710
2018-06-27,22.7,22.7,19.6,20.15,124047
2018-06-28,20.35,23.0,20.25,22.05,103316
2018-06-29,22.0,22.45,21.55,22.35,20140
2018-07-02,22.95,22.95,21.15,21.55,8834
2018-07-03,21.75,22.7,21.3,22.25,34569
2018-07-04,22.25,26.7,21.95,26.1,466788
2018-07-05,27.75,31.3,25.5,31.15,1296364
2018-07-06,31.3,32.95,28.4,31.75,626986
2018-07-09,32.45,34.0,31.55,32.05,317929
2018-07-10,31.1,31.85,30.1,31.15,107178
2018-07-11,31.1,31.1,28.5,29.85,160463
2018-07-12,29.0,30.9,28.15,28.65,267856
2018-07-13,28.05,28.95,26.4,26.7,178883
2018-07-16,26.7,27.3,25.25,26.25,85881
2018-07-17,26.0,27.7,26.0,26.2,155704
2018-07-18,26.05,26.9,24.5,24.7,236000
2018-07-19,24.7,25.25,23.4,24.2,131671
2018-07-20,24.25,24.9,23.5,23.75,32657
2018-07-23,23.8,25.7,23.8,25.3,26376
2018-07-24,24.75,26.0,24.75,25.3,53847
2018-07-25,25.3,26.1,24.8,25.0,202527
2018-07-26,25.0,25.45,22.65,22.9,337735
2018-07-27,23.1,24.5,23.0,23.75,58294
2018-07-30,23.8,24.8,23.8,24.35,34751
2018-07-31,24.5,25.6,24.15,24.85,77745
2018-08-01,24.8,27.3,24.6,26.45,408490
2018-08-02,26.55,27.25,24.25,26.1,668605
2018-08-03,26.6,27.2,26.0,26.25,389207
2018-08-06,26.9,28.3,26.6,27.95,131499
2018-08-07,28.05,29.2,26.6,26.8,291115
2018-08-08,26.8,28.45,26.7,27.0,139661
2018-08-09,27.0,27.1,26.35,26.8,32616
2018-08-10,26.7,28.0,26.55,26.8,67680
2018-08-13,26.0,27.7,26.0,27.15,86242
2018-08-14,27.15,28.4,27.05,27.9,158313
2018-08-16,27.65,29.75,27.35,28.75,183893
2018-08-17,28.95,30.3,27.0,29.25,682919
2018-08-20,29.6,29.6,28.6,29.35,59844
2018-08-21,29.0,30.3,28.85,29.25,734371
2018-08-23,29.0,29.6,27.7,28.5,97114
2018-08-24,28.25,28.45,26.9,27.35,593715
2018-08-27,27.2,28.0,26.6,26.9,319537
2018-08-28,27.0,27.0,26.3,26.8,123970
2018-08-29,26.85,26.85,26.4,26.5,14204
2018-08-30,26.4,26.8,25.8,26.1,227391
2018-08-31,26.1,26.75,26.1,26.25,20438
2018-09-03,26.95,28.25,26.0,26.15,616030
2018-09-04,26.15,26.55,25.7,25.95,113762
2018-09-05,25.65,26.4,25.4,26.1,28609
2018-09-06,26.1,29.0,26.1,27.85,418919
2018-09-07,28.0,29.0,27.5,27.75,1153226
2018-09-10,27.9,28.3,26.8,26.95,362317
2018-09-11,27.0,28.95,26.7,27.1,178523
2018-09-12,27.0,27.35,26.65,26.9,68053
2018-09-14,26.9,27.4,26.5,26.65,156447
2018-09-17,26.65,26.75,25.6,25.8,81929
2018-09-18,25.95,26.25,25.5,25.75,65431
2018-09-19,25.75,28.0,25.75,25.8,95211
2018-09-21,25.8,26.45,24.55,25.05,43774
2018-09-24,25.05,25.4,24.55,25.05,19347
2018-09-25,25.95,25.95,24.3,25.15,38426
2018-09-26,26.8,26.8,25.2,25.35,19911
2018-09-27,25.05,25.05,24.4,24.5,19762
2018-09-28,24.5,24.5,23.6,23.75,38205
2018-10-01,23.5,23.9,22.5,23.0,47744
2018-10-03,23.5,23.75,22.9,23.05,28317
2018-10-04,22.95,23.7,21.05,21.9,611874
2018-10-05,22.0,22.0,20.2,21.35,200529
2018-10-08,21.1,24.45,20.85,22.15,28617
2018-10-09,22.0,22.75,21.85,22.05,25664
2018-10-10,22.3,23.4,22.05,22.9,32589
2018-10-11,22.4,22.75,21.3,22.3,17573
2018-10-12,22.9,23.15,22.1,22.4,34987
2018-10-15,23.4,23.45,22.0,22.45,111609
2018-10-16,22.95,25.1,22.8,24.8,118101
2018-10-17,27.4,29.7,26.25,27.8,1013772
2018-10-19,27.85,29.4,27.5,28.55,386356
2018-10-22,29.0,29.3,27.8,28.0,84440
2018-10-23,28.0,28.0,27.0,27.3,40046
2018-10-25,26.1,27.0,25.75,26.0,19110
2018-10-26,25.75,27.3,25.5,26.55,22160
2018-10-29,25.5,27.85,25.5,27.7,79187
2018-10-30,27.7,28.5,27.55,27.9,44174
2018-10-31,27.7,28.7,27.55,28.5,30811
2018-11-01,28.5,29.5,27.55,28.5,57538
2018-11-02,27.5,29.9,27.5,29.15,88206
2018-11-05,30.6,30.6,29.7,30.6,139123
2018-11-06,32.1,32.1,31.1,32.1,94823
2018-11-07,33.7,33.7,32.7,33.45,150209
2018-11-09,33.45,35.1,32.1,33.6,152211
2018-11-12,34.75,34.75,31.95,31.95,101446
2018-11-13,30.8,33.0,30.75,31.8,90945
2018-11-14,31.75,32.5,31.2,31.95,53509
2018-11-15,32.1,32.7,31.8,32.05,16801
2018-11-16,31.3,32.25,31.0,31.2,50964
2018-11-19,31.7,31.8,30.7,30.85,25108
2018-11-20,30.85,31.45,29.35,29.8,13984
2018-11-21,29.5,30.55,28.8,29.2,13284
2018-11-22,29.1,30.1,29.1,29.9,9439
2018-11-26,29.9,30.5,29.15,29.5,16968
2018-11-27,29.5,30.8,28.5,28.85,11279
2018-11-28,28.85,29.0,28.5,28.65,19348
2018-11-29,28.65,29.5,27.8,28.25,28845
2018-11-30,28.0,29.65,28.0,29.2,61910
2018-12-03,28.1,30.5,28.1,30.1,24982
2018-12-04,29.0,30.6,29.0,29.55,26814
2018-12-05,29.3,30.0,29.0,29.15,5641
2018-12-06,29.15,29.5,28.85,29.2,21132
2018-12-07,28.5,30.25,28.5,29.1,16712
2018-12-10,28.4,28.5,27.75,28.1,9717
2018-12-11,28.0,29.1,27.8,28.85,17592
2018-12-12,28.05,29.0,28.05,28.9,3184
2018-12-13,27.8,29.95,27.8,29.1,11007
2018-12-14,28.1,29.75,28.1,28.7,14371
2018-12-17,28.3,30.1,28.3,29.75,33916
2018-12-18,29.0,30.35,29.0,30.1,17407
2018-12-19,30.25,30.25,29.05,29.15,46136
2018-12-20,29.9,30.6,29.5,30.5,70661
2018-12-21,31.5,32.0,29.3,29.65,40130
2018-12-24,28.7,30.1,28.7,29.6,16745
2018-12-26,29.0,30.1,28.8,28.8,49361
2018-12-27,28.8,30.1,28.4,28.85,11462
2018-12-28,28.55,30.05,28.55,29.95,24221
2018-12-31,29.1,31.25,29.1,29.25,17567
2019-01-01,29.0,30.0,28.2,29.0,4590
2019-01-02,28.5,29.7,28.5,29.3,6361
2019-01-03,29.0,29.15,28.5,28.85,9396
2019-01-04,29.0,29.45,28.5,29.3,8863
2019-01-07,28.6,30.0,28.6,29.05,3107
2019-01-08,28.15,30.5,28.15,30.2,29775
2019-01-09,30.2,31.0,29.7,29.95,41795
2019-01-10,30.9,30.9,29.7,30.0,45485
2019-01-11,29.6,31.0,29.5,29.7,81670
2019-01-14,29.95,29.95,28.5,28.75,104588
2019-01-15,28.2,28.9,27.6,27.65,52565
2019-01-16,27.6,27.65,26.3,26.3,100561
2019-01-17,26.0,26.0,25.2,25.5,113250
2019-01-18,25.0,25.7,24.35,24.55,47623
2019-01-21,24.1,24.4,23.6,24.3,55720
2019-01-22,23.9,24.2,23.5,24.0,74663
2019-01-23,24.0,24.8,24.0,24.35,25278
2019-01-24,24.35,24.55,23.8,23.95,36712
2019-01-25,23.8,24.45,23.75,23.8,38182
2019-01-28,23.8,23.8,22.7,22.85,152089
2019-01-29,23.35,23.55,23.0,23.35,65070
2019-01-30,23.1,24.25,23.1,24.1,55417
2019-01-31,24.0,24.5,24.0,24.1,13843
2019-02-01,24.1,24.85,23.7,24.5,16972
2019-02-04,24.0,24.0,23.3,23.35,47319
2019-02-05,23.1,23.5,22.5,22.65,13792
2019-02-06,22.35,23.65,22.35,23.05,12456
2019-02-07,23.2,23.25,22.6,23.0,15537
2019-02-08,22.8,23.1,22.75,22.8,18320
2019-02-11,22.65,23.25,22.0,22.35,18852
2019-02-12,22.7,22.75,22.0,22.1,14535
2019-02-13,22.0,22.5,21.8,22.25,13655
2019-02-14,22.4,22.4,21.55,21.75,12568
2019-02-15,21.8,22.1,21.65,22.0,8118
2019-02-18,22.05,22.05,20.9,20.95,63665
2019-02-19,20.95,21.5,20.7,21.25,14879
2019-02-20,20.4,21.4,20.4,20.8,19364
2019-02-21,21.2,21.5,21.0,21.5,26510
2019-02-22,21.45,22.35,21.2,22.0,25356
2019-02-25,22.0,22.5,21.85,21.95,15093
2019-02-26,22.0,22.7,21.6,22.55,12093
2019-02-27,22.55,22.9,21.45,21.45,23431
2019-02-28,21.15,21.9,20.5,21.65,27074
2019-03-01,21.95,22.7,21.4,22.65,19396
2019-03-05,22.65,23.75,22.55,23.6,18783
2019-03-06,23.65,24.55,23.65,24.2,15172
2019-03-07,23.9,24.2,23.75,23.95,8950
2019-03-08,23.75,23.85,22.95,23.2,32655
2019-03-11,22.9,23.7,22.85,23.7,40181
2019-03-12,23.35,24.0,23.35,23.7,33281
2019-03-13,23.55,23.8,23.0,23.15,7406
2019-03-14,23.05,23.4,22.1,22.7,8224
2019-03-15,22.95,23.3,22.6,23.05,76583
2019-03-18,22.85,23.6,22.5,23.0,5729
2019-03-19,22.4,23.4,22.4,23.05,36959
2019-03-20,23.0,23.0,22.3,22.5,15932
2019-03-22,22.65,23.0,22.3,22.65,8530
2019-03-25,22.6,22.6,21.6,22.1,8978
2019-03-26,22.2,22.2,21.6,21.85,39659
2019-03-27,21.95,22.4,21.55,21.75,66944
2019-03-28,21.75,22.0,21.3,21.4,48384
2019-03-29,21.45,21.6,21.05,21.3,12827
2019-04-01,21.35,22.35,21.35,22.35,25329
2019-04-02,22.35,23.15,22.35,22.6,6275
2019-04-03,22.6,23.1,22.15,22.35,11215
2019-04-04,22.35,22.5,22.1,22.2,3611
2019-04-05,22.25,22.6,22.05,22.4,10451
2019-04-08,21.65,22.75,21.65,22.35,8673
2019-04-09,22.3,22.9,22.1,22.3,60257
2019-04-10,22.25,22.9,22.1,22.5,56474
2019-04-11,23.5,23.5,22.25,22.25,17758
2019-04-12,22.25,22.8,22.1,22.3,14506
2019-04-15,22.5,23.0,22.5,22.5,20060
2019-04-16,22.05,22.95,22.05,22.25,14395
2019-04-18,22.2,22.9,22.2,22.4,11678
2019-04-22,22.05,22.4,21.4,21.45,18190
2019-04-23,21.15,22.6,20.85,20.95,44977
2019-04-24,22.65,22.65,20.95,21.15,9312
2019-04-25,21.25,21.7,21.05,21.15,8157
2019-04-26,21.25,21.5,20.8,21.0,13200
2019-04-30,21.05,21.05,20.1,20.5,5497
2019-05-02,21.35,21.35,20.05,20.7,12073
2019-05-03,20.6,22.7,20.6,20.8,38700
2019-05-06,20.35,20.95,20.3,20.55,5593
2019-05-07,20.2,20.9,20.2,20.85,1263
2019-05-08,20.65,20.9,19.85,20.3,5383
2019-05-09,20.35,20.7,19.95,20.7,1456
2019-05-10,20.65,21.0,20.0,20.7,14337
2019-05-13,20.55,20.55,19.95,20.05,4761
2019-05-14,20.05,20.2,18.95,19.9,18053
2019-05-15,20.05,21.25,20.0,21.1,37221
2019-05-16,20.45,21.45,20.4,20.95,10592
2019-05-17,21.15,21.6,20.6,21.2,7247
2019-05-20,20.8,21.9,20.8,21.7,41718
2019-05-21,21.1,21.65,20.95,21.45,8235
2019-05-22,21.25,21.5,20.85,20.9,4591
2019-05-23,21.05,21.7,21.05,21.2,14547
2019-05-24,21.1,21.9,21.0,21.75,14135
2019-05-27,21.5,22.25,21.5,22.0,11571
2019-05-28,21.3,22.0,21.2,21.7,2153
2019-05-29,21.25,21.75,21.25,21.4,2986
2019-05-30,21.5,22.25,21.1,21.6,20294
2019-05-31,21.55,22.05,20.75,20.95,37653
2019-06-03,21.4,21.4,20.3,20.8,13397
2019-06-04,20.75,20.75,20.2,20.3,24843
2019-06-06,20.1,20.9,19.9,20.4,20453
2019-06-07,20.9,21.0,19.95,20.7,7701
2019-06-10,20.55,20.9,19.9,20.0,10434
2019-06-11,20.0,20.45,19.95,20.25,2458
2019-06-12,20.25,20.7,20.0,20.15,5791
2019-06-13,20.05,20.55,19.65,20.0,21864
2019-06-14,20.05,20.1,19.75,20.0,32694
2019-06-17,19.9,19.9,18.6,19.1,18290
2019-06-18,19.05,22.0,18.25,18.9,56375
2019-06-19,19.05,19.05,16.1,17.4,139206
2019-06-20,16.45,18.7,16.2,17.15,14094
2019-06-21,16.95,17.65,16.55,17.5,16784
2019-06-24,17.3,18.35,16.8,17.0,22757
2019-06-25,17.3,18.2,17.05,18.1,10817
2019-06-26,17.55,20.0,17.3,18.25,11177
2019-06-27,18.15,18.6,17.7,18.3,40016
2019-06-28,18.1,19.15,18.05,19.05,30035
2019-07-01,18.9,19.7,18.75,19.0,4134
2019-07-02,19.45,19.45,18.7,18.8,1985
2019-07-03,18.55,18.75,18.1,18.4,4514
2019-07-04,18.3,19.05,18.1,18.95,13461
2019-07-05,19.7,19.7,18.5,19.05,11296
2019-07-08,18.9,18.9,18.15,18.25,3893
2019-07-09,18.0,18.7,18.0,18.55,3922
2019-07-10,18.2,18.3,17.0,17.5,61844
2019-07-11,18.25,18.25,17.2,17.35,10578
2019-07-12,18.25,18.25,17.2,17.4,5821
2019-07-15,16.65,17.7,16.65,17.0,25640
2019-07-16,17.15,17.15,16.4,16.5,53443
2019-07-17,16.6,17.4,16.45,16.85,40996
2019-07-18,16.7,17.2,16.5,16.7,21143
2019-07-19,16.5,17.4,16.5,16.8,9550
2019-07-22,16.4,16.4,15.6,16.25,13445
2019-07-23,17.1,17.1,16.15,16.35,9303
2019-07-24,16.15,16.45,16.0,16.15,8486
2019-07-25,16.25,16.45,16.0,16.25,4729
2019-07-26,15.2,17.15,15.2,16.9,11788
2019-07-29,16.5,16.9,16.25,16.65,15816
2019-07-30,16.9,17.5,16.15,16.35,18249
2019-07-31,16.0,17.2,16.0,16.45,12493
2019-08-01,16.55,16.6,15.9,16.0,3533
2019-08-02,15.8,16.0,15.6,15.65,8387
2019-08-05,15.1,16.5,13.8,15.1,79633
2019-08-06,15.65,15.75,15.05,15.15,12487
2019-08-07,15.25,15.5,15.05,15.15,7858
2019-08-08,15.15,15.9,14.9,15.0,3168
2019-08-09,15.0,16.5,14.8,15.75,4925
2019-08-13,15.7,15.7,14.05,14.5,18415
2019-08-14,14.6,14.95,14.35,14.55,10340
2019-08-16,14.35,15.1,14.25,15.0,23940
2019-08-19,14.95,15.05,14.3,14.45,14944
2019-08-20,14.25,14.6,14.0,14.05,32256
2019-08-21,13.3,14.0,13.3,13.85,21559
2019-08-22,14.0,14.0,12.95,12.95,31362
2019-08-23,12.7,13.5,12.65,13.1,10110
2019-08-26,13.35,14.45,13.3,13.8,6006
2019-08-27,13.85,14.6,13.7,13.8,16928
2019-08-28,13.8,14.4,13.8,14.0,6692
2019-08-29,13.5,14.0,13.4,13.75,4545
2019-08-30,13.7,14.45,13.65,13.9,29368
2019-09-03,14.05,14.75,13.95,14.5,6134
2019-09-04,14.4,14.55,13.85,14.45,3258
2019-09-05,14.15,15.0,14.15,14.55,3768
2019-09-06,14.3,15.95,14.3,15.55,8806
2019-09-09,15.55,16.95,15.55,16.55,16756
2019-09-11,17.35,19.85,17.35,18.95,213199
2019-09-12,18.95,21.45,17.65,18.8,131213
2019-09-13,18.5,19.25,17.5,18.0,30442
2019-09-16,17.9,18.5,17.15,18.05,9513
2019-09-17,18.25,18.35,17.4,17.6,9983
2019-09-18,17.5,18.85,17.25,18.0,13417
2019-09-19,18.45,18.9,17.1,18.0,29932
2019-09-20,17.95,18.95,17.2,18.1,27634
2019-09-23,18.1,18.6,17.6,17.7,16775
2019-09-24,17.75,18.05,17.3,17.55,5927
2019-09-25,17.95,17.95,17.15,17.35,16192
2019-09-26,17.75,20.25,17.15,19.35,184115
2019-09-27,19.35,20.2,18.0,18.4,336663
2019-09-30,18.2,18.75,16.5,16.9,103438
2019-10-01,17.05,17.45,15.65,16.4,42984
2019-10-03,15.4,16.25,15.4,15.65,53604
2019-10-04,15.65,16.0,15.2,15.35,14129
2019-10-07,15.3,15.75,14.85,15.3,33072
2019-10-09,15.4,15.4,14.7,14.85,12530
2019-10-10,14.2,15.1,14.2,14.35,19742
2019-10-11,14.35,15.05,14.25,14.65,5587
2019-10-14,14.95,15.2,14.2,14.45,8241
2019-10-15,14.85,16.8,14.5,15.8,24916
2019-10-16,15.45,17.45,15.45,17.2,49055
2019-10-17,17.0,17.2,15.75,17.0,11615
2019-10-18,16.9,17.4,16.25,16.95,3958
2019-10-22,16.9,17.0,16.2,16.8,212836
2019-10-23,16.75,17.05,16.4,16.85,8983
2019-10-24,16.65,17.0,16.45,17.0,1676
2019-10-25,16.95,16.95,15.8,16.3,4102
2019-10-27,16.75,17.3,15.9,17.1,2829
2019-10-29,16.9,17.0,16.15,16.35,9891
2019-10-30,16.2,16.6,15.5,15.6,12215
2019-10-31,16.45,17.95,15.5,16.4,115137
2019-11-01,16.1,17.6,15.8,16.1,20003
2019-11-04,16.05,16.8,15.1,15.55,29286
2019-11-05,15.8,16.0,15.3,15.85,18126
2019-11-06,15.65,16.25,15.5,15.5,21258
2019-11-07,15.45,15.95,15.45,15.65,13884
2019-11-08,15.85,15.85,15.2,15.5,2864
2019-11-11,15.65,15.75,15.15,15.35,3997
2019-11-13,15.65,15.65,15.05,15.1,2326
2019-11-14,14.95,15.65,14.8,15.0,14781
2019-11-15,15.2,15.2,14.95,15.05,4286
2019-11-18,15.0,15.05,14.55,14.7,6621
2019-11-19,14.8,15.1,14.55,14.8,2131
2019-11-20,14.8,15.0,14.3,14.9,5895
2019-11-21,14.9,14.9,14.55,14.65,1634
2019-11-22,14.65,14.9,14.0,14.2,13705
2019-11-25,13.95,14.8,13.95,14.25,10349
2019-11-26,14.25,14.7,14.25,14.4,5554
2019-11-27,14.8,14.8,14.15,14.2,19786
2019-11-28,14.3,14.65,14.25,14.3,10689
2019-11-29,14.5,14.85,14.15,14.3,15579
2019-12-02,14.25,15.25,14.1,14.4,12357
2019-12-03,14.5,14.5,14.05,14.1,4456
2019-12-04,14.1,14.45,14.0,14.25,7613
2019-12-05,14.25,14.4,14.1,14.2,1818
2019-12-06,14.15,14.65,13.9,13.95,69570
2019-12-09,14.2,14.4,13.85,13.95,10732
2019-12-10,13.8,14.1,13.45,13.5,7500
2019-12-11,13.35,13.4,13.1,13.15,8211
2019-12-12,13.5,13.75,13.2,13.3,10442
2019-12-13,13.95,13.95,13.25,13.45,7767
2019-12-16,13.35,13.65,13.15,13.4,7799
2019-12-17,13.6,15.1,13.6,14.2,112607
2019-12-18,14.9,14.9,13.55,14.0,19737
2019-12-19,13.95,14.25,13.55,14.0,20296
2019-12-20,14.0,14.45,13.6,13.65,6852
2019-12-23,14.5,14.5,13.3,13.6,13977
2019-12-24,14.0,14.8,12.65,13.2,109536
2019-12-26,13.15,13.2,12.9,13.15,56528
2019-12-27,13.1,14.35,13.05,13.95,98371
2019-12-30,14.1,14.2,13.35,13.85,11641
2019-12-31,13.8,14.6,13.7,14.35,5309
2020-01-01,14.1,14.6,13.6,13.8,15632
2020-01-02,14.0,15.4,14.0,14.95,27044
2020-01-03,14.95,14.95,14.45,14.7,12963
2020-01-06,14.7,14.7,14.3,14.6,11904
2020-01-07,14.7,14.8,14.5,14.55,10032
2020-01-08,14.55,15.3,14.1,14.9,5840
2020-01-09,15.25,15.25,14.4,14.5,12597
2020-01-10,14.4,15.6,14.4,14.7,26660
2020-01-13,14.6,15.5,14.6,14.75,13348
2020-01-14,14.8,15.65,14.75,15.2,16441
2020-01-15,15.0,16.4,15.0,15.3,45348
2020-01-16,15.25,15.85,15.15,15.35,13642
2020-01-17,15.3,17.2,15.3,16.3,71988
2020-01-20,16.3,16.35,15.35,15.55,20107
2020-01-21,15.35,15.95,15.3,15.8,12285
2020-01-22,16.35,16.35,15.6,15.85,24196
2020-01-23,15.8,16.05,15.45,15.55,14890
2020-01-24,15.3,16.2,15.25,16.0,35103
2020-01-27,15.9,15.9,15.35,15.45,10485
2020-01-28,15.45,15.6,15.0,15.5,17341
2020-01-29,15.1,15.9,14.7,14.95,24578
2020-01-30,14.85,15.5,14.3,14.55,23838
2020-01-31,14.55,14.9,14.1,14.35,21723
2020-02-01,14.8,14.8,13.5,13.75,18577
2020-02-03,13.65,14.9,13.3,13.6,6333
2020-02-04,13.55,14.9,13.55,14.65,15619
2020-02-05,14.9,14.9,14.1,14.45,5407
2020-02-06,14.35,15.25,14.35,14.65,14696
2020-02-07,14.55,14.95,14.5,14.55,4624
2020-02-10,14.45,15.85,14.45,14.5,4844
2020-02-11,14.45,14.95,14.0,14.15,5589
2020-02-12,14.2,14.4,13.55,13.65,14868
2020-02-13,13.45,14.25,13.45,13.65,9104
2020-02-14,13.7,14.25,13.25,13.45,24586
2020-02-17,13.55,14.0,13.5,13.6,4523
2020-02-18,14.0,14.0,13.3,13.75,20207
2020-02-19,13.4,14.25,13.35,13.9,19889
2020-02-20,14.3,15.5,14.3,14.45,11466
2020-02-24,14.1,14.8,13.6,14.0,6243
2020-02-25,13.95,14.2,13.3,13.4,7463
2020-02-26,13.3,14.25,13.3,13.95,6935
2020-02-27,13.9,14.8,13.3,14.25,4571
2020-02-28,14.0,14.05,12.9,13.65,6376
2020-03-02,13.5,13.7,12.3,12.7,26623
2020-03-03,12.8,13.25,12.55,12.7,15022
2020-03-04,12.1,13.25,12.1,12.5,6233
2020-03-05,12.5,13.0,12.45,12.55,7652
2020-03-06,12.5,13.2,11.75,13.05,42733
2020-03-09,13.05,13.05,12.25,12.7,17448
2020-03-11,12.2,12.95,12.1,12.75,57215
2020-03-12,12.15,13.5,11.5,12.1,75237
2020-03-13,10.65,13.9,10.0,11.55,41536
2020-03-16,12.3,12.85,10.55,12.05,34243
2020-03-17,10.8,12.45,10.8,11.5,11525
2020-03-18,11.55,11.65,11.0,11.1,17021
2020-03-19,10.95,12.0,10.3,11.9,17788
2020-03-20,12.05,12.8,11.4,12.2,7990
2020-03-23,11.7,11.7,9.8,10.25,44830
2020-03-24,10.2,11.35,10.0,10.2,32196
2020-03-25,10.25,10.9,9.8,10.2,5897
2020-03-26,10.45,11.7,10.3,11.5,11635
2020-03-27,11.65,11.9,10.2,11.15,17750
2020-03-30,10.9,10.95,10.25,10.55,8691
2020-03-31,10.6,11.9,10.45,11.5,11003
2020-04-01,11.45,11.6,11.35,11.5,5835
2020-04-03,11.05,11.9,10.5,10.95,35263
2020-04-07,11.25,12.8,11.15,12.65,27145
2020-04-08,12.7,15.15,12.7,14.95,70029
2020-04-09,16.0,16.45,13.75,14.45,97732
2020-04-13,15.5,15.5,13.0,13.7,52529
2020-04-15,13.65,13.75,13.4,13.45,15783
2020-04-16,13.5,13.75,12.6,13.65,28532
2020-04-17,13.75,14.0,13.3,13.7,11047
2020-04-20,13.95,14.05,13.05,13.3,17556
2020-04-21,13.2,13.6,12.75,12.95,19968
2020-04-22,12.75,12.75,12.15,12.5,26123
2020-04-23,12.5,13.35,12.5,13.0,21463
2020-04-24,12.7,13.7,12.35,12.65,25955
2020-04-27,12.35,13.2,12.35,12.6,23098
2020-04-28,12.85,13.0,12.45,12.65,32299
2020-04-29,12.5,12.85,12.5,12.55,4072
2020-04-30,12.8,12.8,12.45,12.7,13366
2020-05-04,12.5,12.95,12.25,12.9,17850
2020-05-05,12.8,12.85,12.35,12.45,7585
2020-05-06,12.9,12.9,12.5,12.5,7108
2020-05-07,12.5,13.4,12.2,12.45,20659
2020-05-08,12.3,12.9,11.95,12.4,43286
2020-05-11,12.35,12.8,12.05,12.45,9810
2020-05-12,12.0,12.4,11.8,12.2,19501
2020-05-13,12.65,12.65,12.1,12.15,46418
2020-05-14,12.0,12.4,12.0,12.15,22547
2020-05-15,12.6,12.6,11.7,12.0,45529
2020-05-18,11.9,12.25,11.6,12.05,16854
2020-05-19,12.0,12.2,11.6,11.65,5458
2020-05-20,11.6,12.1,11.0,11.7,17520
2020-05-21,11.7,12.0,11.6,11.95,9092
2020-05-22,11.9,12.4,11.4,11.9,11860
2020-05-26,12.4,12.4,11.65,12.15,8731
2020-05-27,12.2,12.35,11.7,12.35,4346
2020-05-28,12.65,12.65,11.75,11.9,25496
2020-05-29,12.15,12.65,10.35,11.65,86652
2020-06-01,11.3,12.25,11.3,12.1,32996
2020-06-02,12.0,12.5,11.85,12.1,10496
2020-06-03,12.2,12.5,11.75,11.8,67456
2020-06-04,11.8,12.0,11.75,11.95,16244
2020-06-05,11.9,12.3,11.85,12.25,22587
2020-06-08,12.25,12.8,11.8,12.0,54257
2020-06-09,12.1,12.5,11.9,12.0,32751
2020-06-10,11.7,12.6,11.7,11.9,38093
2020-06-11,12.0,12.3,11.85,12.05,27301
2020-06-12,11.95,12.2,11.65,12.1,14103
2020-06-15,12.5,12.5,11.85,12.15,11819
2020-06-16,12.0,12.35,11.85,12.0,37117
2020-06-17,12.0,12.25,11.75,12.1,24616
2020-06-18,12.3,12.75,11.75,12.65,84793
2020-06-19,12.75,14.85,12.6,14.0,187172
2020-06-22,14.15,15.25,13.9,14.25,106210
2020-06-23,14.3,15.2,14.05,14.65,65998
2020-06-24,14.65,16.45,14.4,15.9,287964
2020-06-25,15.8,16.7,15.2,15.45,186645
2020-06-26,15.4,16.35,14.8,14.95,76359
2020-06-29,15.0,16.4,14.55,16.15,143175
2020-06-30,16.8,17.5,15.7,16.1,343219
2020-07-01,16.1,16.75,15.3,16.0,80617
2020-07-02,16.0,16.8,16.0,16.15,90335
2020-07-03,16.15,16.8,15.4,15.5,73683
2020-07-06,15.5,16.0,15.25,15.6,73367
2020-07-07,15.95,15.95,14.85,15.4,70256
2020-07-08,15.4,15.85,14.9,15.1,619056
2020-07-09,15.75,16.2,15.05,15.2,89796
2020-07-10,15.25,15.6,14.55,14.95,75112
2020-07-13,15.45,15.45,15.0,15.05,8842
2020-07-14,15.3,15.3,14.65,14.8,11853
2020-07-15,15.25,15.4,14.6,14.85,43733
2020-07-16,14.85,15.1,13.8,14.2,89273
2020-07-17,14.45,14.7,14.2,14.35,8625
2020-07-20,14.6,14.9,14.5,14.55,12397
2020-07-21,14.35,15.1,14.2,14.25,39987
2020-07-22,14.85,14.85,14.15,14.45,34501
2020-07-23,14.45,17.3,14.35,17.25,656021
2020-07-24,16.75,16.85,15.65,16.1,379338
2020-07-27,16.4,16.9,15.85,16.1,100669
2020-07-28,16.65,16.65,15.8,15.9,36970
2020-07-29,15.8,17.3,15.5,16.45,430685
2020-07-30,16.95,17.0,15.7,16.0,141498
2020-07-31,16.25,16.95,16.0,16.6,114456
2020-08-03,16.6,16.6,15.6,16.0,85992
2020-08-04,15.95,16.7,15.85,16.15,40458
2020-08-05,16.25,16.55,16.05,16.15,43094
2020-08-06,16.0,16.55,16.0,16.15,32587
2020-08-07,16.15,16.25,15.85,16.1,20262
2020-08-10,16.5,16.5,15.75,15.9,54891
2020-08-11,16.1,16.1,15.6,15.75,41785
2020-08-12,15.75,16.0,15.65,15.9,54414
2020-08-13,16.0,16.1,15.65,15.75,44439
2020-08-14,15.95,16.95,15.75,15.9,256601
2020-08-17,15.9,16.25,15.5,15.85,76805
2020-08-18,15.9,16.3,15.6,15.9,78555
2020-08-19,15.9,16.3,15.75,15.85,39484
2020-08-20,15.9,15.9,15.5,15.55,58426
2020-08-21,15.8,16.2,15.55,15.6,44847
2020-08-24,15.5,15.9,15.05,15.4,91831
2020-08-25,15.7,15.7,15.15,15.2,49534
2020-08-26,15.45,15.5,14.8,15.25,92667
2020-08-27,15.5,15.5,15.1,15.2,21923
2020-08-28,15.65,15.65,15.15,15.2,62014
2020-08-31,15.45,15.45,14.2,14.45,89251
2020-09-01,14.0,15.4,13.75,14.65,51471
2020-09-02,15.4,15.4,14.1,14.45,25442
2020-09-03,14.75,14.75,14.1,14.25,21715
2020-09-04,14.0,14.9,13.75,13.9,40260
2020-09-07,13.85,14.15,13.75,13.9,10486
2020-09-08,14.0,14.5,13.7,14.0,40774
2020-09-09,13.85,14.05,13.3,13.95,15592
2020-09-10,13.85,14.35,13.7,14.1,7136
2020-09-11,14.3,14.3,13.85,13.95,15990
2020-09-14,13.95,14.25,13.8,13.85,20111
2020-09-15,13.85,13.95,13.2,13.45,36804
2020-09-16,13.75,15.95,13.55,14.75,447286
2020-09-17,15.2,15.2,14.0,14.3,79276
2020-09-18,14.25,15.15,14.1,14.3,51298
2020-09-21,14.15,15.2,13.8,14.1,52266
2020-09-22,13.95,14.15,13.6,13.95,50193
2020-09-23,13.65,14.45,13.65,13.85,25868
2020-09-24,14.65,14.65,13.0,13.55,57830
2020-09-25,13.75,14.4,13.55,13.95,11431
2020-09-28,14.7,14.7,13.75,13.8,10411
2020-09-29,14.3,14.35,13.55,13.7,22453
2020-09-30,13.75,13.85,13.55,13.6,26867
2020-10-01,13.85,14.0,13.0,13.2,71322
2020-10-05,13.7,13.7,13.2,13.25,17103
2020-10-06,13.5,13.7,13.2,13.5,27013
2020-10-07,13.5,13.75,13.2,13.3,9635
2020-10-08,13.45,14.0,13.1,13.3,91611
2020-10-09,13.35,13.6,13.25,13.4,4464
2020-10-12,13.3,13.35,13.2,13.25,7832
2020-10-13,13.25,13.45,13.1,13.2,5120
2020-10-14,13.05,13.05,12.35,12.75,30156
2020-10-15,13.45,13.45,12.75,12.85,17277
2020-10-16,13.25,13.25,12.55,12.9,9558
2020-10-19,12.85,13.45,12.7,12.85,6722
2020-10-20,13.45,13.5,12.9,13.0,8793
2020-10-21,12.95,13.3,12.65,12.95,22032
2020-10-22,13.05,13.25,12.7,12.8,16643
2020-10-23,13.0,13.15,12.9,12.9,14122
2020-10-26,13.1,13.3,12.85,13.0,17681
2020-10-27,12.9,13.2,12.6,12.7,7123
2020-10-28,12.7,12.9,12.5,12.7,16917
2020-10-29,12.6,12.85,12.5,12.6,6636
2020-10-30,12.6,12.95,12.4,12.65,4283
2020-11-02,12.75,12.8,12.4,12.6,39026
2020-11-03,12.55,12.8,12.4,12.4,30772
2020-11-04,12.45,12.8,12.25,12.4,21037
2020-11-05,12.4,12.7,12.4,12.65,8798
2020-11-06,12.95,13.1,12.5,12.7,23496
2020-11-09,12.8,12.8,12.2,12.3,91644
2020-11-10,12.25,12.6,12.15,12.5,43198
2020-11-11,12.85,12.85,12.3,12.5,4462
2020-11-12,12.4,12.75,12.4,12.5,11972
2020-11-13,12.65,12.8,12.5,12.6,17427
2020-11-14,13.0,13.0,12.35,12.6,4818
2020-11-17,12.55,12.75,12.4,12.55,33284
2020-11-18,12.55,13.05,12.5,12.65,56285
2020-11-19,12.65,13.8,12.4,12.8,136391
2020-11-20,13.3,13.8,13.05,13.55,141187
2020-11-23,13.4,14.05,13.1,13.7,61063
2020-11-24,13.5,13.9,13.1,13.3,26757
2020-11-25,13.35,13.8,13.15,13.2,24284
2020-11-26,13.6,13.6,13.05,13.2,13037
2020-11-27,13.1,13.65,13.05,13.35,44715
2020-12-01,13.15,15.2,13.15,14.25,182281
2020-12-02,14.8,15.3,14.15,14.35,82176
2020-12-03,14.4,15.1,14.4,14.65,87649
2020-12-04,14.85,14.9,13.95,14.05,70341
2020-12-07,14.8,15.2,14.15,14.75,91328
2020-12-08,14.9,15.0,14.2,14.7,116430
2020-12-09,14.6,15.0,14.6,14.8,52920
2020-12-10,14.55,14.7,14.0,14.25,46625
2020-12-11,14.35,14.8,14.25,14.45,56254
2020-12-14,14.85,14.85,14.2,14.5,59126
2020-12-15,14.45,14.7,14.3,14.35,29348
2020-12-16,14.7,14.7,14.35,14.5,24124
2020-12-17,14.7,16.95,14.35,16.0,567030
2020-12-18,16.2,16.2,15.0,15.65,171607
2020-12-21,15.95,16.5,15.05,15.25,201681
2020-12-22,14.8,15.4,14.1,15.25,97908
2020-12-23,15.05,15.55,15.0,15.35,46966
2020-12-24,15.3,16.5,15.05,15.65,246475
2020-12-28,15.5,16.05,15.25,15.6,130099
2020-12-29,15.6,15.9,15.0,15.2,80068
2020-12-30,15.4,15.9,15.2,15.35,61674
2020-12-31,15.35,17.25,15.35,16.3,315306
2021-01-01,16.75,16.75,16.1,16.2,93943
2021-01-04,16.7,16.7,16.05,16.2,115944
2021-01-05,16.15,16.35,15.65,15.95,104986
2021-01-06,15.8,16.1,15.4,15.55,94116
2021-01-07,15.9,16.1,15.5,15.75,96367
2021-01-08,15.75,16.3,15.5,15.6,138530
2021-01-11,15.5,15.7,14.8,14.9,111669
2021-01-12,15.2,15.2,14.8,14.9,71318
2021-01-13,15.4,15.4,14.2,14.7,121219
2021-01-14,14.7,15.15,14.7,15.1,63546
2021-01-15,15.15,16.7,14.8,15.7,480270
2021-01-18,16.0,16.1,15.1,15.35,53371
2021-01-19,15.25,15.6,15.15,15.25,60774
2021-01-20,15.6,16.5,15.6,15.8,411732
2021-01-21,15.95,16.0,15.2,15.3,63320
2021-01-22,15.2,15.5,14.5,14.65,144244
2021-01-25,14.75,14.95,14.5,14.8,58550
2021-01-27,14.8,14.9,14.65,14.7,22300
2021-01-28,14.5,14.8,14.4,14.55,22562
2021-01-29,14.8,15.1,14.65,14.75,21999
2021-02-01,15.0,15.0,14.5,14.55,39939
2021-02-02,14.8,14.9,14.5,14.7,59454
2021-02-03,14.85,14.85,14.5,14.55,30519
2021-02-04,14.7,15.45,14.5,15.1,100591
2021-02-05,15.1,15.3,14.65,14.75,61889
2021-02-08,14.45,15.0,14.45,14.65,28119
2021-02-09,14.6,14.8,14.5,14.55,22231
2021-02-10,14.45,14.7,14.3,14.45,50122
2021-02-11,14.65,14.75,14.45,14.55,32464
2021-02-12,14.5,14.7,14.3,14.35,32239
2021-02-15,14.5,14.5,14.3,14.3,26228
2021-02-16,14.3,14.55,14.15,14.45,29599
2021-02-17,14.7,14.7,14.25,14.35,26261
2021-02-18,14.35,14.5,14.1,14.2,97704
2021-02-19,14.2,14.75,14.1,14.2,80112
2021-02-22,14.5,14.5,13.95,14.0,19307
2021-02-23,14.05,14.2,13.9,13.95,16486
2021-02-24,14.0,15.4,14.0,14.7,60359
2021-02-25,15.15,15.15,14.35,14.5,37482
2021-02-26,14.4,14.65,14.2,14.45,22206
2021-03-01,14.6,14.65,14.3,14.55,20399
2021-03-02,14.65,15.65,14.2,15.25,386633
2021-03-03,15.45,18.3,15.3,16.55,1214317
2021-03-04,16.45,16.45,15.8,15.95,138633
2021-03-05,16.3,17.3,15.8,16.85,536112
2021-03-08,17.4,17.5,16.85,17.0,189653
2021-03-09,17.25,20.4,16.9,18.65,2191211
2021-03-10,18.6,19.55,17.65,18.15,444483
2021-03-12,18.8,19.0,16.85,17.2,259999
2021-03-15,17.5,17.75,16.45,16.95,179207
2021-03-16,17.3,17.75,16.5,16.75,190648
2021-03-17,16.75,17.0,16.3,16.35,77807
2021-03-18,16.45,16.7,15.55,15.95,89227
2021-03-19,15.25,16.5,15.1,16.05,67633
2021-03-22,16.05,16.05,15.55,15.8,42246
2021-03-23,16.3,16.9,15.75,15.95,58402
2021-03-24,15.95,16.2,15.1,15.3,60850
2021-03-25,15.3,18.0,15.05,16.05,329795
2021-03-26,16.2,16.75,15.45,15.95,71544
2021-03-30,15.95,17.15,15.95,16.9,84866
2021-03-31,16.9,17.35,16.45,16.65,38728
2021-04-01,16.65,17.3,16.55,16.8,40181
2021-04-05,16.95,16.95,15.65,16.2,55998
2021-04-06,16.05,16.5,15.95,16.0,19961
2021-04-07,16.05,16.5,15.85,15.9,52415
2021-04-08,15.95,16.4,15.8,15.9,38100
2021-04-09,15.8,16.0,15.3,15.55,38733
2021-04-12,15.4,15.5,14.95,15.05,22291
2021-04-13,14.7,15.3,14.7,15.05,9147
2021-04-15,15.05,15.25,14.7,15.1,18046
2021-04-16,14.5,15.2,14.5,14.8,27869
2021-04-19,15.0,15.0,13.4,14.15,35709
2021-04-20,14.75,14.8,14.2,14.3,27952
2021-04-22,14.05,14.7,13.9,14.65,13143
2021-04-23,14.4,15.0,14.35,14.8,20434
2021-04-26,15.0,15.0,14.2,14.45,24882
2021-04-27,14.45,15.15,14.45,15.0,45483
2021-04-28,15.15,15.7,14.85,15.3,69101
2021-04-29,15.25,15.25,14.6,14.8,27097
2021-04-30,14.95,15.0,14.5,14.6,50391
2021-05-03,14.6,14.9,14.05,14.75,123538
2021-05-04,14.95,16.9,14.75,15.85,371444
2021-05-05,16.2,16.45,15.75,16.05,126650
2021-05-06,16.1,16.15,15.55,15.65,23711
2021-05-07,15.5,17.1,15.5,16.65,292774
2021-05-10,16.65,17.5,16.25,16.55,105895
2021-05-11,15.7,17.2,15.7,16.55,145793
2021-05-12,16.5,17.7,15.75,15.95,119349
2021-05-14,16.65,16.65,15.9,16.15,50514
2021-05-17,16.55,16.55,16.05,16.2,38260
2021-05-18,16.9,16.9,16.1,16.4,57873
2021-05-19,16.2,16.45,15.75,16.0,77659
2021-05-20,16.0,17.3,15.95,16.25,226472
2021-05-21,16.5,16.8,16.25,16.55,55262
2021-05-24,16.55,17.25,16.3,16.55,176966
2021-05-25,16.75,16.9,16.6,16.8,112700
2021-05-26,16.95,18.45,16.65,17.65,535100
2021-05-27,17.65,18.25,17.2,17.5,389462
2021-05-28,17.5,17.75,16.9,17.1,128007
2021-05-31,18.5,19.5,18.25,18.45,1462825
2021-06-01,18.5,18.7,17.55,17.85,202409
2021-06-02,17.6,19.7,17.6,18.85,415961
2021-06-03,19.0,19.45,18.4,18.75,193562
2021-06-04,18.5,19.0,18.2,18.35,193224
2021-06-07,18.35,18.8,18.2,18.25,128064
2021-06-08,18.3,18.6,18.0,18.3,134733
2021-06-09,18.35,19.6,18.05,18.3,852385
2021-06-10,18.5,19.5,18.25,18.8,285941
2021-06-11,19.0,20.45,18.8,19.95,1002964
2021-06-14,20.25,20.25,19.1,19.25,300963
2021-06-15,19.1,20.95,19.05,20.2,564861
2021-06-16,20.0,20.2,19.55,19.65,214188
2021-06-17,19.25,20.1,19.1,19.3,268341
2021-06-18,19.15,19.7,18.3,19.0,458599
2021-06-21,18.9,19.2,17.4,18.85,291268
2021-06-22,18.85,19.75,18.7,18.95,814927
2021-06-23,19.1,19.7,18.8,18.9,407643
2021-06-24,19.25,19.4,18.6,18.7,105779
2021-06-25,18.95,22.4,18.6,20.5,3176074
2021-06-28,20.7,21.2,19.75,20.0,484555
2021-06-29,20.05,20.25,19.6,19.7,137186
2021-06-30,20.15,20.7,19.75,20.55,344981
2021-07-01,20.75,21.15,20.1,20.2,352491
2021-07-02,20.45,20.7,19.8,19.9,190908
2021-07-05,20.1,21.65,19.6,20.75,590925
2021-07-06,21.15,21.8,20.4,20.6,218322
2021-07-07,21.1,24.7,21.1,24.7,5168423
2021-07-08,24.95,24.95,22.6,22.85,1403474
2021-07-09,22.95,23.85,22.5,23.05,596552
2021-07-12,23.0,23.4,22.3,22.6,272434
2021-07-13,22.95,23.1,21.6,21.75,403508
2021-07-14,21.4,22.35,21.4,21.85,198746
2021-07-15,21.85,22.65,20.5,20.7,427551
2021-07-16,21.0,21.7,20.4,20.65,263631
2021-07-19,20.5,21.2,19.65,20.25,330767
2021-07-20,20.05,20.95,18.7,20.65,415700
2021-07-22,21.5,21.5,20.5,21.05,222344
2021-07-23,21.25,21.85,20.5,20.65,209935
2021-07-26,20.85,20.85,19.9,20.1,138382
2021-07-27,19.95,23.75,19.95,22.15,1307269
2021-07-28,22.6,23.5,21.95,23.0,646510
2021-07-29,23.25,24.1,22.6,22.75,534487
2021-07-30,22.8,25.7,22.45,24.7,1587074
2021-08-02,27.7,27.7,25.15,25.5,1262204
2021-08-03,26.3,26.3,24.25,24.4,423356
2021-08-04,25.2,25.2,22.85,23.1,381797
2021-08-05,23.0,24.15,21.5,22.7,616425
2021-08-06,22.75,23.7,22.25,22.7,177806
2021-08-09,22.75,23.3,22.25,22.75,181037
2021-08-10,22.85,22.85,20.55,20.85,294104
2021-08-11,20.85,20.95,18.9,20.4,216845
2021-08-12,20.5,21.6,20.5,20.85,158650
2021-08-13,20.85,22.4,20.6,21.35,202228
2021-08-16,21.15,21.5,20.0,20.3,164804
2021-08-17,20.5,20.75,19.65,19.75,133763
2021-08-18,19.85,20.5,19.5,19.65,87096
2021-08-20,19.0,19.65,17.0,18.7,299624
2021-08-23,19.2,19.5,18.2,18.4,82664
2021-08-24,18.45,20.6,18.2,19.95,198229
2021-08-25,20.0,20.45,19.55,19.75,88871
2021-08-26,19.75,20.3,19.5,19.55,76759
2021-08-27,19.55,19.75,18.5,18.9,67972
2021-08-30,18.95,20.45,18.95,19.85,151819
2021-08-31,20.9,20.9,19.6,19.8,57586
2021-09-01,20.0,20.7,19.65,20.05,143487
2021-09-02,20.1,20.4,19.7,19.8,136599
2021-09-03,20.25,20.25,19.55,19.6,64911
2021-09-06,19.7,19.95,19.15,19.55,106101
2021-09-07,19.5,19.75,19.15,19.45,38300
2021-09-08,19.75,19.75,18.9,19.05,262661
2021-09-09,19.1,19.4,19.0,19.15,78472
2021-09-13,19.15,19.5,18.95,19.2,61637
2021-09-14,19.25,19.5,18.0,18.95,170845
2021-09-15,18.7,19.35,18.7,19.05,102356
2021-09-16,19.0,19.3,19.0,19.05,49833
2021-09-17,19.05,19.2,18.2,18.7,107715
2021-09-20,18.75,18.75,18.05,18.35,39854
2021-09-21,18.35,18.65,18.35,18.45,26516
2021-09-22,18.7,19.0,18.5,18.6,44778
2021-09-23,18.95,19.1,18.4,18.45,97203
2021-09-24,18.45,18.7,17.9,18.1,95554
2021-09-27,18.2,18.95,17.7,18.6,90833
2021-09-28,18.25,20.25,18.25,19.5,513656
2021-09-29,19.7,19.95,19.35,19.65,71978
2021-09-30,19.9,20.75,19.35,19.5,136561
2021-10-01,19.5,20.0,19.1,19.6,77590
2021-10-04,19.95,20.0,19.5,19.55,94400
2021-10-05,19.55,21.0,19.35,20.5,322861
2021-10-06,20.9,21.1,19.5,19.7,177481
2021-10-07,20.0,20.8,19.75,19.95,108049
2021-10-08,20.05,20.9,20.05,20.25,115810
2021-10-11,20.45,22.15,20.05,21.25,548547
2021-10-12,21.4,22.1,21.05,21.8,231018
2021-10-13,22.0,22.0,21.05,21.25,199576
2021-10-14,21.5,21.5,20.6,20.9,92669
2021-10-18,20.95,20.95,20.05,20.15,119692
2021-10-19,20.4,20.4,19.2,19.55,105026
2021-10-20,19.6,19.75,19.1,19.15,45803
2021-10-21,19.2,19.9,19.2,19.6,33961
2021-10-22,19.75,20.15,19.05,19.25,68983
2021-10-25,19.2,19.3,18.55,18.95,62716
2021-10-26,19.0,19.95,18.35,19.15,56061
2021-10-27,19.25,20.2,19.2,19.6,92349
2021-10-28,19.65,19.95,18.75,18.85,41408
2021-10-29,18.9,19.35,18.6,18.8,36786
2021-11-01,19.5,19.5,18.9,19.0,26357
2021-11-02,19.4,19.4,18.75,18.95,33371
2021-11-03,19.0,19.25,18.65,18.9,40436
2021-11-04,19.25,19.3,19.0,19.05,26384
2021-11-08,19.0,19.25,19.0,19.05,30504
2021-11-09,19.05,19.25,19.05,19.05,33049
2021-11-10,19.05,19.25,18.85,18.95,46245
2021-11-11,18.6,19.2,18.6,18.8,30119
2021-11-12,18.75,22.35,18.75,21.95,1546348
2021-11-15,21.55,21.55,19.8,20.05,424442
2021-11-16,20.0,20.15,19.75,19.85,102897
2021-11-17,19.8,21.6,19.75,20.15,412878
2021-11-18,20.5,20.5,19.75,19.95,44563
2021-11-22,19.75,20.75,18.8,19.25,170126
2021-11-23,19.0,19.6,18.8,19.15,89556
2021-11-24,19.15,19.7,18.9,19.2,85750
2021-11-25,19.2,19.5,19.0,19.35,28468
2021-11-26,18.05,19.65,18.05,19.05,109020
2021-11-29,19.1,19.2,18.05,18.85,67848
2021-11-30,18.6,19.45,18.6,18.75,39918
2021-12-01,18.8,19.25,18.35,18.6,47485
2021-12-02,18.9,18.95,18.6,18.9,46177
2021-12-03,19.1,19.1,18.55,18.65,62148
2021-12-06,18.65,19.0,18.5,18.8,61790
2021-12-07,18.65,19.0,18.6,18.8,57451
2021-12-08,18.85,21.2,18.75,20.35,500391
2021-12-09,20.55,21.0,20.25,20.35,113815
2021-12-10,20.35,20.95,20.0,20.6,83909
2021-12-13,21.0,21.0,19.8,20.05,45717
2021-12-14,20.2,22.0,19.9,21.4,577868
2021-12-15,21.65,21.65,20.1,20.35,125177
2021-12-16,20.7,20.7,20.05,20.15,54090
2021-12-17,20.05,20.05,18.95,19.25,127902
2021-12-20,18.95,18.95,17.05,17.95,282967
2021-12-21,18.15,18.75,17.85,18.35,65437
2021-12-22,18.35,19.55,18.1,18.95,90240
2021-12-23,19.6,19.8,18.8,19.0,61830
2021-12-24,19.35,19.35,17.85,18.25,188078
2021-12-27,18.4,18.8,18.0,18.5,97244
2021-12-28,18.5,19.45,18.5,19.2,91553
2021-12-29,19.5,20.45,18.8,19.5,260329
2021-12-30,19.5,21.45,19.5,20.45,968223
2021-12-31,20.8,20.8,20.1,20.2,104707
2022-01-03,20.25,21.35,20.1,20.55,198841
2022-01-04,21.0,22.85,20.45,21.45,1009550
2022-01-05,21.4,22.25,21.15,21.85,428921
2022-01-06,21.65,21.95,21.1,21.6,114015
2022-01-07,21.85,22.4,20.75,20.85,263714
2022-01-10,21.15,22.75,20.9,22.1,386653
2022-01-11,22.3,22.3,21.05,21.25,196218
2022-01-12,21.5,22.3,21.4,21.75,249135
2022-01-13,22.0,22.0,21.05,21.2,118234
2022-01-14,21.4,21.95,21.05,21.35,117058
2022-01-17,21.2,21.9,21.2,21.55,80718
2022-01-18,21.55,21.9,20.8,21.05,168378
2022-01-19,21.35,21.5,19.6,20.6,123604
2022-01-20,20.6,21.25,20.35,20.7,75672
2022-01-21,20.25,20.85,20.05,20.3,91104
2022-01-24,20.0,20.3,19.05,19.25,134889
2022-01-25,19.15,19.5,18.9,19.2,85270
2022-01-27,19.0,19.85,18.75,19.75,85335
2022-01-28,20.25,20.6,19.55,19.65,113039
2022-01-31,20.05,20.05,19.55,19.7,226996
2022-02-01,19.9,20.4,19.25,19.5,74138
2022-02-02,19.55,21.35,19.55,20.75,340469
2022-02-03,21.2,21.5,20.4,20.6,128239
2022-02-04,20.95,21.1,20.1,20.6,92720
2022-02-07,20.85,20.85,20.0,20.1,82328
2022-02-08,20.1,20.2,19.35,19.85,53611
2022-02-09,19.9,20.5,19.65,19.75,67630
2022-02-10,19.95,19.95,19.55,19.7,37701
2022-02-11,19.6,19.95,19.5,19.65,33293
2022-02-14,19.05,19.85,18.7,18.85,62322
2022-02-15,18.7,19.25,18.35,18.95,90801
2022-02-16,19.6,20.9,19.05,20.05,208053
2022-02-17,19.9,20.5,19.05,19.2,97006
2022-02-18,19.0,19.4,18.8,18.85,64159
2022-02-21,19.2,19.2,18.15,18.4,50466
2022-02-22,18.0,18.45,17.25,18.15,68849
2022-02-23,18.35,18.75,18.05,18.3,88601
2022-02-24,17.8,17.8,16.55,16.85,122553
2022-02-25,17.15,18.3,17.15,17.75,52121
2022-02-28,17.75,18.25,16.2,17.9,62678
2022-03-02,17.95,18.2,17.5,17.8,32470
2022-03-03,17.85,18.25,17.3,17.55,25038
2022-03-04,17.55,17.8,17.1,17.15,51780
2022-03-07,17.4,17.4,16.6,16.85,21821
2022-03-08,17.2,17.2,16.85,17.1,23783
2022-03-09,16.9,17.7,16.9,17.55,46328
2022-03-10,17.6,18.0,17.2,17.5,59607
2022-03-11,17.9,18.9,17.55,18.55,127848
2022-03-14,18.55,19.3,18.55,18.7,94862
2022-03-15,18.85,19.45,18.35,18.6,147974
2022-03-16,18.5,20.3,18.5,19.6,524525
2022-03-17,19.85,20.1,19.2,19.5,161459
2022-03-21,19.8,19.8,18.15,18.2,470530
2022-03-22,18.45,18.45,17.65,17.9,166337
2022-03-23,17.85,18.25,17.65,17.8,151894
2022-03-24,17.8,18.5,17.6,17.8,154534
2022-03-25,17.95,18.2,17.5,17.75,128040
2022-03-28,17.95,17.95,17.3,17.4,277913
2022-03-29,17.5,18.0,16.9,17.0,378332
2022-03-30,17.15,17.6,17.1,17.15,101980
2022-03-31,17.15,17.45,16.9,17.05,84698
2022-04-01,17.0,17.95,17.0,17.7,139519
2022-04-04,18.2,18.4,18.0,18.2,76777
2022-04-05,18.6,19.3,18.1,18.85,183683
2022-04-06,18.85,19.4,18.35,18.8,169525
2022-04-07,18.9,21.3,18.9,20.35,752712
2022-04-08,20.7,21.05,20.2,20.5,277423
2022-04-11,20.85,20.9,19.45,19.6,150127
2022-04-12,19.6,19.75,18.95,19.3,137356
2022-04-13,19.3,20.2,19.2,19.65,121347
2022-04-18,19.0,20.8,18.85,19.8,364672
2022-04-19,20.05,21.9,19.3,20.05,911315
2022-04-20,20.25,20.85,19.45,19.95,218901
2022-04-21,19.75,21.65,19.7,21.25,344119
2022-04-22,21.3,21.5,20.55,20.6,170122
2022-04-25,20.7,20.8,19.6,19.65,133273
2022-04-26,19.7,20.5,19.5,19.65,93022
2022-04-27,19.5,19.7,19.0,19.2,107237
2022-04-28,19.95,19.95,18.85,19.05,155790
2022-04-29,19.4,19.4,18.8,18.85,61165
2022-05-02,18.8,19.1,18.75,18.95,44834
2022-05-04,18.55,19.0,18.15,18.4,74561
2022-05-05,18.45,18.65,17.8,18.1,72516
2022-05-06,18.4,18.5,17.6,17.75,84768
2022-05-09,17.45,17.65,16.7,17.1,97433
2022-05-10,17.2,17.95,17.1,17.4,55430
2022-05-11,17.75,17.75,16.25,17.15,63231
2022-05-12,17.15,17.15,16.4,16.7,30230
2022-05-13,17.0,17.45,16.15,16.6,61605
2022-05-16,16.95,17.85,16.95,17.25,56637
2022-05-17,17.25,17.95,17.25,17.8,31305
2022-05-18,17.5,18.5,17.45,17.55,113102
2022-05-19,17.8,17.95,16.9,17.15,38901
2022-05-20,17.5,17.8,17.3,17.7,20213
2022-05-23,17.95,17.95,17.1,17.2,33155
2022-05-24,17.1,17.35,16.85,17.0,34949
2022-05-25,17.2,17.2,16.4,16.7,28388
2022-05-26,16.75,17.2,16.15,16.45,44713
2022-05-27,16.45,17.2,16.45,16.85,25719
2022-05-30,16.85,17.3,16.75,17.0,27915
2022-05-31,17.05,17.05,16.55,16.75,28025
2022-06-01,16.75,17.1,16.65,16.7,19877
2022-06-02,16.7,16.85,16.25,16.55,58202
2022-06-03,16.9,16.9,16.0,16.15,62991
2022-06-06,16.45,16.45,16.15,16.3,9896
2022-06-07,16.3,16.5,16.15,16.2,18724
2022-06-08,16.2,16.65,16.1,16.2,34150
2022-06-09,15.9,16.4,15.9,16.1,22997
2022-06-10,16.0,16.25,15.95,16.05,22417
2022-06-13,15.45,16.1,15.45,15.55,19426
2022-06-14,15.8,16.45,15.55,15.85,26452
2022-06-15,16.0,16.15,15.55,15.6,9808
2022-06-16,15.4,15.95,15.4,15.5,14025
2022-06-17,15.5,15.6,15.2,15.25,11444
2022-06-20,15.25,15.5,14.3,14.75,43611
2022-06-21,14.75,15.25,14.6,14.95,50969
2022-06-22,14.7,15.8,14.6,14.85,15860
2022-06-23,14.7,15.6,14.65,15.2,15569
2022-06-24,14.9,15.7,14.8,15.3,22224
2022-06-27,15.1,15.7,15.0,15.45,21049
2022-06-28,15.45,15.7,15.1,15.45,21178
2022-06-29,15.15,15.9,15.0,15.4,41113
2022-06-30,15.2,15.7,15.2,15.3,6039
2022-07-01,15.25,15.7,15.25,15.4,24974
2022-07-04,15.8,15.8,15.45,15.55,35693
2022-07-05,15.55,17.1,15.35,16.15,246179
2022-07-06,16.5,16.5,16.0,16.05,12821
2022-07-07,16.05,16.45,16.0,16.1,9144
2022-07-08,15.75,16.45,15.75,16.1,26809
2022-07-11,15.9,16.5,15.75,16.1,18327
2022-07-12,16.05,16.4,15.55,16.0,46909
2022-07-13,16.35,16.65,16.15,16.2,51349
2022-07-14,16.05,16.5,15.75,15.8,25688
2022-07-15,16.0,16.2,15.8,15.9,14457
2022-07-18,16.2,16.3,15.85,16.15,26308
2022-07-19,15.9,16.5,15.9,16.2,26334
2022-07-20,16.5,16.65,16.05,16.25,58858
2022-07-21,16.15,16.25,16.0,16.05,37919
2022-07-22,16.0,16.3,16.0,16.05,31842
2022-07-25,16.1,16.2,15.75,15.85,19336
2022-07-26,15.75,16.1,15.75,15.85,5540
2022-07-27,15.85,16.4,15.85,15.95,64458
2022-07-28,15.85,16.25,15.8,15.85,41839
2022-07-29,15.85,16.2,15.8,15.85,17727
2022-08-01,16.4,16.7,16.05,16.5,143405
2022-08-02,16.4,17.25,16.4,16.95,92033
2022-08-03,16.75,16.9,16.3,16.45,33087
2022-08-04,16.5,16.9,16.15,16.65,41072
2022-08-05,16.65,16.75,16.3,16.4,25363
2022-08-08,16.35,16.8,16.05,16.35,35865
2022-08-10,16.35,17.2,16.05,16.6,180874
2022-08-11,16.95,16.95,16.05,16.25,22276
2022-08-12,16.25,16.5,16.2,16.3,25576
2022-08-16,16.45,16.55,16.1,16.35,20125
2022-08-17,16.55,16.75,16.4,16.6,57704
2022-08-18,16.6,16.7,16.4,16.55,15898
2022-08-19,16.75,16.95,16.45,16.65,47031
2022-08-22,16.25,16.7,16.15,16.15,43711
2022-08-23,16.4,16.9,16.35,16.35,31655
2022-08-24,16.7,17.2,16.5,16.75,153586
2022-08-25,17.15,17.2,16.75,16.8,54075
2022-08-26,16.9,17.3,16.75,17.05,30220
2022-08-29,16.9,17.45,16.6,16.95,77707
2022-08-30,17.3,17.3,16.85,17.0,16119
2022-09-01,17.1,17.3,16.8,17.0,27150
2022-09-02,17.0,17.1,16.7,16.8,40552
2022-09-05,16.8,17.1,16.6,16.7,36971
2022-09-06,16.95,17.45,16.7,16.8,141618
2022-09-07,16.95,17.1,16.65,16.7,40602
2022-09-08,16.95,18.2,16.7,17.75,353373
2022-09-09,17.95,18.35,17.75,17.8,119382
2022-09-12,18.0,18.05,17.1,17.4,46527
2022-09-13,17.75,17.95,17.4,17.85,64669
2022-09-14,17.95,17.95,16.5,17.55,37197
2022-09-15,17.8,17.9,16.95,17.2,82101
2022-09-16,16.9,17.2,16.6,16.8,38635
2022-09-19,17.3,17.3,16.6,16.65,11864
2022-09-20,16.85,17.0,16.65,16.75,39475
2022-09-21,16.75,16.95,16.25,16.4,30121
2022-09-22,16.4,16.6,16.4,16.5,5834
2022-09-23,16.95,16.95,15.8,16.0,45133
2022-09-26,16.1,16.1,15.2,15.35,32521
2022-09-27,15.85,15.85,15.4,15.7,13601
2022-09-28,15.5,16.2,15.3,15.7,9559
2022-09-29,15.75,15.9,15.4,15.55,8636
2022-09-30,15.3,15.8,15.3,15.5,21550
2022-10-03,15.5,15.75,15.05,15.3,30562
2022-10-04,15.75,15.75,15.15,15.55,21475
2022-10-06,15.55,16.3,15.3,16.2,36553
2022-10-07,16.5,16.5,15.9,16.15,15188
2022-10-10,15.9,16.3,15.85,16.2,17341
2022-10-11,16.2,16.2,16.0,16.1,8434
2022-10-12,16.45,16.45,15.9,16.0,5583
2022-10-13,16.0,16.3,15.75,15.9,15151
2022-10-14,15.95,16.25,15.85,16.0,10072
2022-10-17,16.2,16.2,15.1,15.5,19366
2022-10-18,15.55,15.85,15.25,15.5,24866
2022-10-19,15.8,15.8,15.45,15.5,20227
2022-10-20,15.45,15.65,15.3,15.45,7802
2022-10-21,15.45,15.7,15.25,15.35,15545
2022-10-24,15.65,15.65,15.15,15.6,4690
2022-10-25,15.65,15.7,15.35,15.45,28765
2022-10-27,15.45,15.95,15.25,15.45,48971
2022-10-28,15.75,16.05,15.4,15.95,82399
2022-10-31,15.7,16.25,15.7,15.8,33929
2022-11-01,15.65,16.0,15.6,15.75,26661
2022-11-02,16.0,16.0,15.5,15.55,12098
2022-11-03,15.55,15.7,15.3,15.35,42240
2022-11-04,15.7,16.25,15.35,16.0,45787
2022-11-07,16.0,16.25,15.8,16.05,11208
2022-11-09,16.25,17.0,15.8,16.25,59057
2022-11-10,16.25,16.95,16.25,16.4,68669
2022-11-11,16.4,16.75,15.75,15.95,45947
2022-11-14,15.95,16.1,15.75,15.75,16114
2022-11-15,15.8,15.95,15.5,15.6,28674
2022-11-16,15.55,15.75,15.35,15.45,24171
2022-11-17,15.5,15.8,15.3,15.6,57621
2022-11-18,15.6,15.75,15.4,15.4,33825
2022-11-21,15.3,15.55,15.0,15.1,45678
2022-11-22,15.1,15.45,15.1,15.25,16330
2022-11-23,15.25,15.6,15.1,15.3,32621
2022-11-24,15.6,15.6,15.25,15.4,8679
2022-11-25,15.45,15.8,15.25,15.6,26842
2022-11-28,15.75,15.85,15.35,15.4,13940
2022-11-29,15.8,15.8,15.15,15.6,18241
2022-11-30,15.6,15.7,15.35,15.45,34230
2022-12-01,15.45,15.7,14.85,15.1,118291
2022-12-02,15.15,15.3,15.0,15.1,74781
2022-12-05,15.1,15.6,15.1,15.35,88485
2022-12-06,15.35,15.55,15.05,15.15,50722
2022-12-07,15.35,15.35,15.05,15.2,55630
2022-12-08,15.2,15.3,15.05,15.25,18314
2022-12-09,15.15,15.4,15.05,15.05,57552
2022-12-12,15.55,15.55,14.8,15.05,16814
2022-12-13,15.05,17.0,15.05,16.1,531582
2022-12-14,16.3,16.45,16.0,16.1,54873
2022-12-15,16.2,16.2,14.35,15.3,236643
2022-12-16,15.45,15.7,15.1,15.3,40749
2022-12-19,15.7,16.3,15.15,15.9,143532
2022-12-20,15.9,17.5,15.7,16.5,763882
2022-12-21,16.75,17.0,15.15,15.3,281801
2022-12-22,15.15,15.65,14.8,15.05,62243
2022-12-23,15.0,15.0,14.4,14.5,78446
2022-12-26,14.5,15.15,14.5,15.0,41443
2022-12-27,14.9,15.4,14.9,15.1,30567
2022-12-28,15.4,15.5,15.1,15.25,51949
2022-12-29,15.05,15.6,15.0,15.2,59111
2022-12-30,15.5,15.95,15.1,15.4,166652
2023-01-02,15.6,16.3,15.35,16.15,203781
2023-01-03,16.15,16.3,15.65,16.1,64228
2023-01-04,16.15,16.15,15.6,15.65,50815
2023-01-05,15.7,15.95,15.5,15.65,14660
2023-01-06,15.65,15.95,15.65,15.65,12114
2023-01-09,15.95,16.0,15.25,15.5,28002
2023-01-10,15.5,15.75,15.15,15.3,46865
2023-01-11,15.5,15.9,15.4,15.4,15125
2023-01-12,15.5,15.75,15.2,15.3,11948
2023-01-13,15.25,15.45,15.25,15.35,23406
2023-01-16,15.35,15.65,15.2,15.3,27323
2023-01-17,15.2,15.55,15.2,15.4,28512
2023-01-18,15.7,15.7,15.2,15.25,11835
2023-01-19,15.2,15.5,14.95,15.1,22487
2023-01-20,15.1,15.45,15.1,15.2,14616
2023-01-23,15.45,15.45,15.1,15.1,13397
2023-01-24,15.15,15.3,14.8,14.95,31804
2023-01-25,14.9,15.0,14.65,14.8,25203
2023-01-27,14.8,14.85,14.2,14.3,40809
2023-01-30,14.35,14.7,14.25,14.3,19136
2023-01-31,14.25,14.5,14.25,14.3,64344
2023-02-01,14.5,14.5,13.9,14.05,41690
2023-02-02,14.0,14.25,13.95,14.1,41543
2023-02-03,14.35,14.35,13.6,13.85,28025
2023-02-06,13.8,14.25,13.6,13.65,37385
2023-02-07,13.75,14.0,13.55,13.65,24125
2023-02-08,14.0,14.0,13.65,13.8,28223
2023-02-09,13.8,14.0,13.65,13.9,33284
2023-02-10,13.9,14.1,13.75,13.8,21245
2023-02-13,13.65,13.9,13.6,13.65,25381
2023-02-14,13.8,13.85,13.3,13.55,38443
2023-02-15,13.55,13.55,13.25,13.3,28901
2023-02-16,13.3,13.5,13.2,13.3,11976
2023-02-17,13.5,13.55,13.45,13.5,15786
2023-02-20,13.9,13.9,13.35,13.4,15491
2023-02-21,13.6,13.6,13.15,13.2,6447
2023-02-22,13.35,13.5,12.85,13.3,44764
2023-02-23,13.5,13.5,13.05,13.1,20511
2023-02-24,13.3,13.3,12.9,13.0,35307
2023-02-27,12.95,13.25,11.1,11.45,191413
2023-02-28,11.7,11.8,10.8,11.6,61979
2023-03-01,11.55,12.6,11.5,12.35,27768
2023-03-02,12.35,12.95,12.35,12.85,55062
2023-03-03,12.95,13.0,12.5,12.7,20435
2023-03-06,12.4,12.9,12.35,12.75,15467
2023-03-08,12.75,12.85,12.6,12.75,49571
2023-03-09,12.95,13.0,12.5,12.65,16999
2023-03-10,12.5,12.65,11.45,11.65,168268
2023-03-13,11.9,11.9,11.2,11.25,55417
2023-03-14,11.4,11.55,11.2,11.4,20366
2023-03-15,11.7,11.8,11.05,11.5,39002
2023-03-16,11.4,11.65,11.2,11.4,53656
2023-03-17,11.7,11.85,11.15,11.4,27032
2023-03-20,11.0,11.6,10.85,11.0,74589
2023-03-21,11.0,11.2,10.95,11.0,33583
2023-03-22,11.0,11.2,10.65,10.9,53162
2023-03-23,10.85,11.35,10.85,11.0,40747
2023-03-24,10.9,11.15,10.7,10.7,55739
2023-03-27,10.8,10.9,10.35,10.4,76455
2023-03-28,10.9,10.9,10.4,10.6,75817
2023-03-29,10.5,11.1,10.45,10.55,67761
2023-03-31,10.6,11.75,10.55,11.15,226589
2023-04-03,11.4,13.2,11.15,12.9,127643
2023-04-05,13.0,13.2,11.6,12.1,129271
2023-04-06,12.45,12.45,11.5,12.05,45240
2023-04-10,12.5,12.5,11.5,11.85,35059
2023-04-11,12.25,13.35,11.7,13.1,385063
2023-04-12,13.25,13.45,12.55,12.75,261270
2023-04-13,12.75,13.45,12.55,13.0,77438
2023-04-17,13.3,13.3,12.55,12.65,318032
2023-04-18,12.8,13.0,12.65,12.9,45150
2023-04-19,13.0,13.0,12.5,12.6,30715
2023-04-20,12.6,12.8,12.5,12.55,28953
2023-04-21,12.6,12.6,12.05,12.2,30220
2023-04-24,12.2,12.7,11.95,12.35,35633
2023-04-25,12.35,12.65,12.2,12.5,23398
2023-04-26,12.7,12.7,12.25,12.55,13187
2023-04-27,12.35,12.8,12.35,12.7,32800
2023-04-28,12.75,12.85,12.55,12.75,38587
2023-05-02,12.75,12.9,12.6,12.7,19301
2023-05-03,12.7,12.95,12.35,12.85,47637
2023-05-04,12.85,13.35,12.6,12.9,94715
2023-05-05,12.95,13.0,12.7,12.85,15433
2023-05-08,12.95,14.25,12.8,13.8,292716
2023-05-09,13.8,14.0,13.5,13.5,29964
2023-05-10,13.5,13.5,13.1,13.1,27844
2023-05-11,13.1,13.4,13.1,13.2,32865
2023-05-12,13.4,13.4,13.0,13.05,20811
2023-05-15,13.1,13.7,13.05,13.25,40407
2023-05-16,13.45,13.45,13.05,13.1,20477
2023-05-17,13.05,13.2,12.8,12.85,44517
2023-05-18,13.0,13.2,12.75,12.8,122584
2023-05-19,12.95,13.0,12.7,12.95,43391
2023-05-22,12.95,13.0,12.6,12.95,33677
2023-05-23,13.05,13.05,12.75,12.8,36906
2023-05-24,12.8,13.45,12.7,13.3,91142
2023-05-25,13.3,13.9,13.05,13.55,107762
2023-05-26,13.55,13.95,13.35,13.55,69704
2023-05-29,13.6,13.9,13.5,13.5,59427
2023-05-30,13.75,13.75,13.1,13.4,7102
2023-05-31,13.55,13.55,12.6,12.9,73407
2023-06-01,13.0,13.25,12.9,13.15,14121
2023-06-02,13.2,13.25,12.95,12.95,34554
2023-06-05,13.2,13.3,12.95,13.05,25800
2023-06-06,13.25,13.25,12.85,12.9,53223
2023-06-07,12.9,13.95,12.9,13.4,379055
2023-06-08,13.4,13.75,12.95,13.0,72170
2023-06-09,13.0,13.4,13.0,13.2,47457
2023-06-12,13.1,13.4,13.05,13.15,19511
2023-06-13,13.1,13.5,13.1,13.25,69487
2023-06-14,13.2,13.8,13.05,13.6,137447
2023-06-15,13.75,13.8,13.15,13.25,53466
2023-06-16,13.25,13.5,13.1,13.45,35712
2023-06-19,13.25,13.7,13.15,13.2,35306
2023-06-20,13.35,13.6,13.15,13.4,54384
2023-06-21,13.4,13.6,13.2,13.4,28021
2023-06-22,13.6,13.65,13.2,13.25,63592
2023-06-23,13.25,13.25,13.0,13.1,25770
2023-06-26,13.25,13.5,13.05,13.25,39287
2023-06-27,13.25,13.45,13.1,13.15,21179
2023-06-28,13.1,13.25,13.05,13.05,18003
2023-06-30,12.95,13.5,12.95,13.2,35450
2023-07-03,13.45,13.45,13.15,13.4,32766
2023-07-04,13.5,13.5,13.15,13.2,21348
2023-07-05,13.2,13.5,13.15,13.2,29920
2023-07-06,13.2,13.35,13.1,13.25,35865
2023-07-07,13.25,13.3,12.55,12.9,80502
2023-07-10,12.9,13.0,12.75,12.8,21224
2023-07-11,12.8,13.0,12.7,12.8,17037
2023-07-12,13.0,13.0,12.6,12.7,41933
2023-07-13,12.75,12.85,12.65,12.7,20198
2023-07-14,12.7,12.8,12.6,12.65,27678
2023-07-17,12.6,12.9,12.6,12.75,24144
2023-07-18,12.7,12.85,12.55,12.6,25982
2023-07-19,12.6,12.75,12.55,12.65,25872
2023-07-20,12.75,12.75,12.45,12.55,61917
2023-07-21,12.5,12.6,12.5,12.5,47815
2023-07-24,12.5,12.5,12.25,12.3,49225
2023-07-25,12.4,12.6,12.3,12.45,26571
2023-07-26,12.5,12.55,12.35,12.5,19922
2023-07-27,12.6,12.6,12.4,12.4,25966
2023-07-28,12.4,12.5,12.25,12.35,39887
2023-07-31,12.35,12.55,12.3,12.35,38504
2023-08-01,12.5,12.6,12.35,12.45,46949
2023-08-02,12.5,12.5,12.2,12.2,45963
2023-08-03,12.4,12.4,12.15,12.25,15672
2023-08-04,12.45,12.45,12.25,12.3,14086
2023-08-07,12.2,12.4,12.15,12.15,62814
2023-08-08,12.15,12.4,12.15,12.25,17359
2023-08-09,12.25,12.35,12.1,12.2,38536
2023-08-10,12.2,12.3,12.15,12.15,32586
2023-08-11,12.25,13.5,12.15,12.9,512852
2023-08-14,12.9,13.2,12.6,12.75,104174
2023-08-16,12.6,13.9,12.6,13.5,439086
2023-08-17,13.6,13.8,13.25,13.35,182585
2023-08-18,13.35,13.5,12.95,13.05,89271
2023-08-21,13.25,13.4,13.0,13.1,38510
2023-08-22,13.2,13.8,12.95,13.05,91362
2023-08-23,13.15,13.75,13.1,13.25,210215
2023-08-24,13.3,13.5,13.15,13.3,103660
2023-08-25,13.35,13.7,13.15,13.45,73262
2023-08-28,13.5,13.6,13.0,13.2,142296
2023-08-29,13.2,13.4,13.05,13.1,57892
2023-08-30,13.25,13.45,13.0,13.1,122109
2023-08-31,13.1,13.3,12.9,12.95,99024
2023-09-01,13.0,13.15,12.95,13.05,72154
2023-09-04,13.1,13.45,13.0,13.25,193449
2023-09-05,13.45,15.9,13.35,15.9,4035942
2023-09-06,16.1,17.4,15.05,16.75,2250822
2023-09-07,17.05,18.55,16.6,17.0,1367174
2023-09-08,17.4,17.4,16.1,16.25,426389
2023-09-11,16.5,16.65,16.05,16.15,138717
2023-09-12,16.35,16.35,14.8,14.95,333266
2023-09-13,14.85,15.8,14.55,15.65,221663
2023-09-14,15.95,16.0,15.5,15.55,81241
2023-09-15,15.5,16.5,15.4,16.2,340043
2023-09-18,16.45,16.45,15.5,15.75,97704
2023-09-20,15.7,15.7,15.05,15.2,123029
2023-09-21,15.15,15.75,15.1,15.2,71633
2023-09-22,15.2,15.4,14.95,15.05,51555
2023-09-25,15.3,15.65,15.15,15.4,75749
2023-09-26,15.5,15.5,15.05,15.1,130187
2023-09-27,15.3,15.4,14.8,15.0,56339
2023-09-28,15.0,15.3,14.75,14.8,91717
2023-09-29,14.8,15.0,14.6,14.7,34641
2023-10-03,14.8,15.0,14.6,14.85,39180
2023-10-04,15.0,15.0,14.8,14.95,50070
2023-10-05,14.9,15.0,14.55,14.7,32080
2023-10-06,14.95,15.25,14.75,15.05,49813
2023-10-09,15.05,15.15,14.6,14.7,38518
2023-10-10,14.9,15.05,14.4,14.6,69657
2023-10-11,14.65,16.3,14.6,16.15,721276
2023-10-12,16.4,16.4,15.5,15.9,198664
2023-10-13,16.0,16.0,15.5,15.55,105239
2023-10-16,15.8,16.0,15.15,15.4,205377
2023-10-17,15.45,15.7,15.25,15.35,93352
2023-10-18,15.35,15.5,14.95,15.1,108343
2023-10-19,15.1,15.2,14.8,14.95,83492
2023-10-20,15.05,15.4,14.8,15.0,42346
2023-10-23,15.2,15.2,13.55,13.8,97044
2023-10-25,14.05,14.55,13.8,14.05,422522
2023-10-26,13.85,14.1,13.25,13.5,142623
2023-10-27,13.5,14.1,13.5,13.7,328751
2023-10-30,13.7,14.1,13.65,13.75,229545
2023-10-31,13.75,13.95,13.6,13.8,42043
2023-11-01,14.0,14.1,13.7,13.8,276966
2023-11-02,13.8,14.2,13.8,13.9,500116
2023-11-03,14.1,14.4,14.0,14.05,255031
2023-11-06,14.0,14.7,14.0,14.5,814688
2023-11-07,14.7,14.7,14.4,14.45,156940
2023-11-08,14.75,15.05,14.6,14.8,431103
2023-11-09,14.75,15.05,14.35,14.45,635529
2023-11-10,14.65,16.2,14.45,15.65,1345542
2023-11-12,15.6,16.2,15.6,15.75,84669
2023-11-13,15.7,15.8,15.3,15.45,327788
2023-11-15,15.5,15.75,15.25,15.35,473832
2023-11-16,15.35,15.45,15.05,15.2,872176
2023-11-17,15.1,15.75,14.95,15.5,955462
2023-11-20,15.35,17.8,15.35,16.95,2020875
2023-11-21,17.75,18.2,17.3,17.95,1713511
2023-11-22,18.15,18.15,16.4,16.7,653775
2023-11-23,16.7,17.15,16.5,16.7,274110
2023-11-24,16.9,17.3,16.8,17.05,498725
2023-11-28,17.45,17.5,16.6,16.75,705319
2023-11-29,17.0,17.0,16.5,16.55,734543
2023-11-30,16.6,16.75,15.8,15.95,525311
2023-12-01,16.2,16.5,15.9,16.15,484883
2023-12-04,16.5,16.5,16.05,16.15,77410
2023-12-05,16.3,16.35,15.75,16.05,221430
2023-12-06,16.4,17.6,16.35,17.0,972702
2023-12-07,17.2,17.65,16.5,17.1,323111
2023-12-08,17.35,17.35,16.65,16.75,146779
2023-12-11,17.0,17.0,16.45,16.55,219606
2023-12-12,16.75,16.95,16.35,16.45,192802
2023-12-13,16.6,16.75,16.2,16.4,132498
2023-12-14,16.5,16.8,16.15,16.35,155896
2023-12-15,16.5,16.5,16.15,16.2,81797
2023-12-18,16.25,19.4,16.25,18.9,2511418
2023-12-19,19.6,19.8,18.05,18.95,1926599
2023-12-20,18.7,19.8,17.9,18.15,1198050
2023-12-21,18.4,19.3,17.6,18.95,753780
2023-12-22,19.35,19.35,18.15,18.35,283104
2023-12-26,18.6,18.85,17.75,18.2,254886
2023-12-27,18.25,18.7,17.3,17.5,285999
2023-12-28,17.6,17.7,16.5,16.65,429151
2023-12-29,16.8,17.95,16.75,17.5,225203
2024-01-01,17.7,19.05,17.55,18.3,536360
2024-01-02,18.75,20.8,18.45,20.25,2746516
2024-01-03,20.45,20.7,19.6,19.85,615802
2024-01-04,19.9,20.2,19.45,19.55,357173
2024-01-05,19.6,19.8,18.4,19.25,570521
2024-01-08,19.25,20.2,19.05,19.65,542363
2024-01-09,19.8,20.7,19.25,20.35,692641
2024-01-10,20.05,20.45,19.8,19.95,359423
2024-01-11,19.95,20.2,19.45,19.7,178537
2024-01-12,19.7,20.4,19.2,19.35,395051
2024-01-15,19.45,20.55,19.3,19.95,545691
2024-01-16,20.55,20.6,19.0,19.55,438396
2024-01-17,19.55,19.8,18.85,19.15,172470
2024-01-18,19.05,19.8,18.4,19.2,199832
2024-01-19,19.4,20.4,19.15,19.75,464185
2024-01-20,20.0,20.1,19.4,19.5,144974
2024-01-23,19.5,19.75,17.9,18.25,307197
2024-01-24,18.3,18.6,17.7,17.9,522103
2024-01-25,18.05,18.95,18.0,18.55,505999
2024-01-29,18.85,19.35,18.35,18.55,473863
2024-01-30,18.8,19.9,18.1,19.3,881136
2024-01-31,19.3,19.8,18.85,18.95,461047
2024-02-01,19.25,19.4,18.5,18.65,328657
2024-02-02,18.85,19.2,18.4,18.5,312814
2024-02-05,18.7,19.35,18.0,18.15,255041
2024-02-06,18.45,21.75,18.0,21.75,4434228
2024-02-07,21.9,24.35,20.5,23.05,6061557
2024-02-08,23.7,23.9,22.4,23.35,1453883
2024-02-09,24.0,24.0,21.0,21.95,1023722
2024-02-12,22.0,22.4,19.3,19.65,702268
2024-02-13,19.05,20.15,18.7,19.25,471798
2024-02-14,18.85,20.4,18.85,20.25,410323
2024-02-15,20.85,21.2,20.45,20.7,326424
2024-02-16,21.05,21.7,20.85,21.25,374675
2024-02-19,21.65,21.65,20.6,20.7,221074
2024-02-20,20.7,21.15,20.0,20.15,259170
2024-02-21,20.25,21.0,19.45,19.7,426046
2024-02-22,19.9,20.85,19.2,20.35,471362
2024-02-23,20.5,20.7,19.8,19.9,205478
2024-02-26,20.0,20.1,19.0,19.2,349526
2024-02-27,19.35,19.95,18.55,18.9,351210
2024-02-28,19.0,19.3,17.9,18.3,353315
2024-02-29,18.3,18.5,17.95,18.35,104803
2024-03-01,18.55,19.35,18.3,19.15,375337
2024-03-02,19.4,19.8,19.0,19.3,87777
2024-03-04,19.3,20.5,18.6,19.6,1032288
2024-03-05,19.6,20.7,19.15,19.4,430469
2024-03-06,19.5,19.6,18.35,18.85,259658
2024-03-07,18.6,19.2,18.6,18.75,93568
2024-03-11,18.95,18.95,17.9,18.2,166822
2024-03-12,18.15,18.25,16.6,16.85,278542
2024-03-13,16.6,17.05,15.2,15.4,326514
2024-03-14,15.3,16.15,14.8,15.75,323350
2024-03-15,15.9,16.3,15.55,15.9,139280
2024-03-18,15.65,16.3,15.6,15.95,101099
2024-03-19,15.65,16.1,15.15,15.35,156688
2024-03-20,15.25,15.65,14.55,14.9,175876
2024-03-21,15.0,16.5,14.95,16.05,618976
2024-03-22,16.05,16.15,15.6,15.75,155728
2024-03-26,16.0,16.15,15.4,15.5,123171
2024-03-27,15.4,15.75,14.5,14.8,307388
2024-03-28,15.0,15.45,14.55,14.65,164925
2024-04-01,14.5,16.2,14.4,16.1,220502
2024-04-02,16.05,16.75,15.8,16.6,154019
2024-04-03,16.95,17.6,16.55,17.3,301469
2024-04-04,17.95,20.2,17.1,19.55,1437274
2024-04-05,19.55,21.25,18.8,20.85,1624947
2024-04-08,21.55,21.55,19.6,19.75,367879
2024-04-09,19.95,20.9,19.4,19.5,248792
2024-04-10,19.55,20.2,19.2,19.35,168929
2024-04-12,19.05,19.9,18.3,18.9,238854
2024-04-15,17.8,19.3,17.3,19.1,367991
2024-04-16,19.1,21.0,18.5,21.0,1304407
2024-04-18,21.4,23.1,21.15,22.15,1986566
2024-04-19,22.0,22.25,20.9,22.1,346575
2024-04-22,23.05,23.2,21.6,22.45,371283
2024-04-23,22.05,22.9,21.8,22.05,245867
2024-04-24,22.0,22.5,21.9,22.0,287056
2024-04-25,22.25,22.25,21.0,21.35,173168
2024-04-26,21.35,21.8,21.35,21.6,106113
2024-04-29,21.95,21.95,21.5,21.7,117777
2024-04-30,22.0,22.7,21.65,22.05,256537
2024-05-02,22.35,23.25,21.15,22.9,800970
2024-05-03,22.95,23.0,22.4,22.6,178059
2024-05-06,22.75,22.85,22.15,22.45,193243
2024-05-07,23.0,23.0,21.8,22.1,146988
2024-05-08,22.5,22.7,21.95,22.05,86039
2024-05-09,22.2,22.25,20.15,20.8,112511
2024-05-10,20.4,20.85,20.15,20.6,42582
2024-05-13,20.6,20.85,19.6,20.2,52836
2024-05-14,19.8,22.05,19.7,21.55,173093
2024-05-15,21.75,22.25,21.0,21.5,73362
2024-05-16,21.9,21.9,21.0,21.05,55536
2024-05-17,20.6,22.2,20.6,21.45,160020
2024-05-18,21.45,21.85,21.0,21.4,11776
2024-05-21,21.0,22.0,20.5,21.25,167699
2024-05-22,21.4,21.45,20.7,21.0,65009
2024-05-23,21.05,21.35,20.6,20.7,44899
2024-05-24,20.95,21.05,20.3,20.55,45103
2024-05-27,20.6,20.9,20.1,20.25,58758
2024-05-28,20.0,20.45,19.85,19.9,46062
2024-05-29,19.7,21.1,19.7,20.7,109213
2024-05-30,20.95,21.1,19.65,20.1,68494
2024-05-31,20.0,20.3,19.55,19.7,64092
2024-06-03,19.75,20.45,19.65,19.8,46103
2024-06-04,20.15,20.15,17.85,18.35,220207
2024-06-05,18.35,18.9,17.5,18.3,96204
2024-06-06,18.45,19.85,18.35,19.55,83179
2024-06-07,19.9,21.5,19.4,20.0,186798
2024-06-10,20.9,20.9,20.01,20.21,53281
2024-06-11,20.38,20.8,19.87,20.21,66456
2024-06-12,20.25,20.5,19.56,19.97,82620
2024-06-13,20.28,20.28,19.85,19.91,41243
2024-06-14,19.95,20.9,19.88,20.02,186163
2024-06-18,20.05,20.49,19.5,19.63,124568
2024-06-19,19.85,19.85,19.01,19.18,76697
2024-06-20,19.38,19.58,19.0,19.09,120780
2024-06-21,19.3,19.53,19.05,19.46,77355
2024-06-24,19.65,20.14,19.4,19.46,127706
2024-06-25,19.49,19.9,19.26,19.32,89751
2024-06-26,19.3,19.87,19.0,19.53,137472
2024-06-27,19.53,19.64,19.36,19.57,88836
2024-06-28,19.79,19.79,19.17,19.61,135717
2024-07-01,19.74,20.75,19.62,20.5,204523
2024-07-02,20.51,21.8,20.02,21.16,666799
2024-07-03,21.48,21.79,20.9,20.93,147120
2024-07-04,20.8,21.18,20.15,20.28,47598
2024-07-05,20.7,21.8,20.1,21.02,168096
2024-07-08,21.44,21.92,20.5,21.02,289215
2024-07-09,21.24,21.99,20.95,20.97,160139
2024-07-10,21.23,21.23,20.3,20.62,76323
2024-07-11,20.95,20.95,20.3,20.34,61478
2024-07-12,20.25,21.4,20.25,21.1,149216
2024-07-15,21.47,21.47,20.58,20.73,62068
2024-07-16,20.97,20.97,20.12,20.27,83161
2024-07-18,20.32,21.25,19.81,20.47,199309
2024-07-19,20.67,20.7,19.81,20.07,83057
2024-07-22,19.95,20.07,19.8,19.84,36919
2024-07-23,19.85,20.24,19.0,19.75,188638
2024-07-24,19.52,21.72,19.52,21.6,602057
2024-07-25,21.5,23.27,21.05,21.74,791043
2024-07-26,21.74,22.19,21.12,21.25,112955
2024-07-29,21.06,21.46,20.61,20.96,101884
2024-07-30,20.52,21.65,20.52,21.13,72161
2024-07-31,21.0,21.43,20.7,20.83,91101
2024-08-01,21.39,21.39,20.25,20.46,86999
2024-08-02,20.5,20.96,19.86,20.77,100794
2024-08-05,20.52,20.52,19.39,19.85,187224
2024-08-06,20.25,20.39,19.11,19.4,66892
2024-08-07,19.67,21.45,19.02,20.3,310962
2024-08-08,20.05,20.86,20.0,20.12,36935
2024-08-09,20.53,22.78,20.2,21.83,923112
2024-08-12,21.99,22.4,21.23,21.38,263170
2024-08-13,21.78,21.78,20.2,20.31,96181
2024-08-14,20.37,20.59,19.81,19.94,41942
2024-08-16,19.95,20.44,19.95,20.11,42862
2024-08-19,20.34,22.8,19.84,22.39,564336
2024-08-20,25.0,25.35,21.74,23.53,3481112
2024-08-21,23.5,24.84,22.8,23.04,896280
2024-08-22,23.37,23.9,22.51,22.61,161195
2024-08-23,22.6,23.49,21.9,22.25,367057
2024-08-26,22.7,23.45,22.1,22.64,98490
2024-08-27,22.88,22.88,21.02,21.53,221554
2024-08-28,21.68,21.99,20.82,20.98,202537
2024-08-29,21.19,21.8,20.65,20.73,139786
2024-08-30,20.93,21.44,20.06,20.98,521817
2024-09-02,21.3,22.74,20.85,22.14,637951
2024-09-03,22.54,22.81,22.0,22.58,282024
2024-09-04,21.62,22.48,21.62,22.01,91885
2024-09-05,22.0,22.74,21.85,21.98,185383
2024-09-06,22.17,22.49,21.55,21.97,269622
2024-09-09,21.96,22.22,21.52,21.79,121701
2024-09-10,21.73,22.29,21.73,21.95,64646
2024-09-11,21.95,22.47,21.95,22.03,112487
2024-09-12,22.07,22.3,21.45,21.56,85942
2024-09-13,21.88,22.5,21.6,21.96,401079
2024-09-16,22.38,22.4,21.81,21.83,85258
2024-09-17,21.5,22.0,21.5,21.78,58868
2024-09-18,21.96,21.96,20.8,21.15,179999
2024-09-19,21.43,21.44,20.45,20.53,138484
2024-09-20,20.99,21.4,20.68,21.09,123072
2024-09-23,21.1,21.1,20.85,20.91,50349
2024-09-24,20.96,21.45,20.65,20.87,81450
2024-09-25,20.98,20.99,19.97,20.02,267600
2024-09-26,20.28,20.49,19.99,20.19,111644
2024-09-27,20.64,20.64,20.02,20.16,64691
2024-09-30,20.16,20.6,20.0,20.15,159350
2024-10-01,20.28,21.0,20.05,20.71,200887
2024-10-03,20.98,20.98,20.11,20.19,85454
2024-10-04,20.19,20.49,19.45,19.61,139100
2024-10-07,19.87,19.87,18.61,18.77,107194
2024-10-08,19.0,19.68,18.69,19.28,68949
2024-10-09,19.66,20.66,19.31,20.28,167954
2024-10-10,20.44,20.89,20.15,20.31,125314
2024-10-11,20.44,20.59,19.82,19.92,61127
2024-10-14,20.25,20.25,19.65,19.88,83934
2024-10-15,19.55,20.0,19.52,19.58,40402
2024-10-16,19.75,19.75,19.0,19.27,79476
2024-10-17,19.27,19.47,18.8,18.94,71043
2024-10-18,18.82,19.19,18.65,19.06,42771
2024-10-21,19.44,19.44,18.7,18.72,23218
2024-10-22,18.75,18.91,18.01,18.05,31415
2024-10-23,18.0,18.39,17.22,17.52,145645
2024-10-24,17.33,17.98,17.12,17.84,76989
2024-10-25,17.84,17.85,17.25,17.4,49865
2024-10-28,17.1,17.87,17.1,17.23,51233
2024-10-29,17.79,17.79,16.91,17.09,62044
2024-10-30,17.45,17.95,17.09,17.71,50401
2024-10-31,17.41,18.5,17.41,17.96,68500
2024-11-01,18.48,18.77,18.02,18.62,27538
2024-11-04,19.05,20.1,18.89,19.21,143263
2024-11-05,19.26,19.96,19.26,19.38,76329
2024-11-06,19.4,19.69,18.86,19.47,46019
2024-11-07,19.48,19.51,18.92,19.09,25913
2024-11-08,19.19,19.19,18.6,18.77,35145
2024-11-11,19.15,19.3,18.9,19.08,28894
2024-11-12,19.24,19.24,18.0,18.23,37599
2024-11-13,18.22,18.22,17.11,17.23,57046
2024-11-14,17.58,17.72,17.3,17.58,23935
2024-11-18,17.58,17.7,16.62,16.92,49551
2024-11-19,17.23,17.64,16.77,16.96,74298
2024-11-21,16.8,17.12,16.2,16.33,54297
2024-11-22,16.6,16.84,16.37,16.71,24507
2024-11-25,16.99,17.55,16.99,17.15,67404
2024-11-26,17.49,17.55,16.2,17.15,39957
2024-11-27,17.44,17.59,17.16,17.33,23814
2024-11-28,17.69,18.1,17.31,17.72,55293
2024-11-29,17.98,18.4,17.66,17.89,22201
2024-12-02,18.3,19.34,18.01,18.86,169219
2024-12-03,18.96,19.21,18.71,18.99,68582
2024-12-04,18.64,20.0,18.61,19.0,84265
2024-12-05,19.0,19.55,18.7,19.34,43020
2024-12-06,19.49,19.6,18.95,19.15,65135
2024-12-09,19.15,20.75,19.15,19.7,265881
2024-12-10,19.89,19.93,19.3,19.56,51141
2024-12-11,19.7,19.74,19.25,19.3,36732
2024-12-12,19.5,19.5,19.07,19.21,86996
2024-12-13,19.21,19.48,18.74,19.0,44201
2024-12-16,18.83,20.13,18.83,19.56,145246
2024-12-17,19.0,19.64,18.76,18.95,55572
2024-12-18,18.7,19.43,18.6,18.68,36704
2024-12-19,18.68,19.03,18.46,18.81,87725
2024-12-20,18.99,19.1,18.71,18.75,78285
2024-12-23,18.75,18.93,18.1,18.16,51379
2024-12-24,18.05,18.3,17.31,17.97,53752
2024-12-26,17.52,18.08,17.52,17.78,24032
2024-12-27,17.55,17.99,17.55,17.83,26303
2024-12-30,17.53,17.92,17.53,17.63,28077
2024-12-31,17.36,18.97,17.35,18.18,10838
2025-01-01,18.2,18.79,18.11,18.18,79880
2025-01-02,18.48,18.68,18.18,18.52,22543
2025-01-03,18.44,18.99,18.17,18.3,37626
2025-01-06,18.17,18.39,17.38,17.44,42507
2025-01-07,17.57,18.15,17.57,18.01,36407
2025-01-08,18.3,18.3,18.0,18.01,28787
2025-01-09,18.03,18.54,17.5,18.06,40184
2025-01-10,18.49,18.49,17.0,17.2,68615
2025-01-13,17.0,17.6,16.25,16.89,145736
2025-01-14,17.08,17.28,16.71,17.01,37281
2025-01-15,16.78,17.38,16.78,17.1,50716
2025-01-16,17.39,17.39,17.0,17.19,28612
2025-01-17,17.01,17.45,16.5,16.88,53823
2025-01-20,17.19,17.19,16.89,17.06,18396
2025-01-21,17.06,17.19,16.48,16.51,43094
2025-01-22,16.52,16.87,16.25,16.59,17317
2025-01-23,16.55,17.5,16.3,16.56,99971
2025-01-24,16.86,16.86,14.6,15.14,183985
2025-01-27,15.14,15.14,14.5,14.54,430577
2025-01-28,14.8,15.95,14.5,15.39,97490
2025-01-29,15.65,16.4,15.46,16.08,88820
2025-01-30,16.0,18.2,16.0,17.83,197686
2025-01-31,18.25,20.05,17.85,19.48,491499
2025-02-01,19.49,21.2,18.53,20.07,259985
2025-02-03,20.06,20.06,19.5,19.62,68335
2025-02-04,19.98,20.25,19.5,19.9,50915
2025-02-05,20.0,20.0,19.0,19.24,45610
2025-02-06,19.65,20.8,18.5,20.43,263486
2025-02-07,20.0,20.39,19.11,19.5,102317
2025-02-10,20.0,20.0,19.0,19.35,47454
2025-02-11,19.97,20.6,19.0,20.28,297837
2025-02-12,20.48,22.69,20.36,22.22,1727835
2025-02-13,22.18,23.5,21.2,22.61,603448
2025-02-14,23.4,23.4,21.92,22.43,244385
2025-02-17,22.95,23.25,22.0,22.52,221842
2025-02-18,23.49,23.49,22.0,22.95,308089
2025-02-19,23.29,27.0,23.01,25.26,874064
2025-02-20,25.5,29.0,25.07,27.13,1263696
2025-02-21,27.8,31.2,27.5,30.22,1149173
2025-02-24,32.0,36.26,31.3,36.26,5656998
2025-02-25,35.0,36.0,34.44,34.44,219078
2025-02-27,32.71,32.71,32.71,32.71,7447
2025-02-28,31.07,31.07,31.07,31.07,9825
2025-03-03,29.51,29.51,29.51,29.51,89287
2025-03-04,28.08,28.08,28.03,28.03,8686
2025-03-05,26.62,26.62,26.62,26.62,49996
2025-03-06,25.28,25.28,25.28,25.28,8457
2025-03-07,24.01,26.54,24.01,26.54,356098
2025-03-10,27.6,27.8,25.21,25.21,165006
2025-03-11,23.95,23.95,23.94,23.94,213297
2025-03-12,22.74,24.1,22.74,23.81,371268
2025-03-13,23.0,25.0,22.61,25.0,340195
2025-03-17,24.05,24.5,23.75,23.75,78720
2025-03-18,23.51,24.93,22.71,24.25,90168
2025-03-19,25.45,25.46,24.26,25.46,63768
2025-03-20,26.64,26.73,26.5,26.73,20941
2025-03-21,27.7,28.06,27.05,28.06,98970
2025-03-24,29.4,29.46,28.5,29.46,15486
2025-03-25,30.93,30.93,30.93,30.93,44249
2025-03-26,31.54,31.54,30.31,31.54,119962
2025-03-27,32.17,32.17,32.17,32.17,30533
2025-03-28,32.81,32.81,32.81,32.81,28661
2025-04-01,33.46,33.46,33.46,33.46,16372
2025-04-02,34.12,34.12,34.12,34.12,30920
2025-04-03,34.8,34.8,34.8,34.8,22441
2025-04-04,35.49,35.49,35.49,35.49,37274
2025-04-07,36.19,36.19,36.19,36.19,155576
2025-04-08,36.91,36.91,36.91,36.91,36527
2025-04-09,37.64,37.64,37.64,37.64,46587
2025-04-11,38.39,38.39,38.39,38.39,30197
2025-04-15,39.15,39.15,39.15,39.15,31442
2025-04-16,39.93,39.93,39.93,39.93,23110
2025-04-17,40.72,40.72,40.72,40.72,21244
2025-04-21,39.9,39.9,39.9,39.9,281187
2025-04-22,39.1,39.1,39.1,39.1,272985
2025-04-23,38.31,38.31,38.31,38.31,29895
2025-04-24,37.54,37.56,37.54,37.54,523065
2025-04-25,36.78,36.78,36.78,36.78,62507
2025-04-28,36.78,36.78,36.04,36.04,261861
2025-04-29,35.31,35.31,35.31,35.31,49220
2025-04-30,34.6,34.6,34.6,34.6,23775
2025-05-02,33.9,33.9,33.9,33.9,8873
2025-05-05,32.5,33.89,32.2,32.2,864614
2025-05-06,30.59,30.59,30.59,30.59,124674
2025-05-07,29.06,32.11,29.06,30.83,364545
2025-05-08,32.37,32.37,31.89,32.36,199465
2025-05-09,31.0,33.97,30.74,33.95,161434
2025-05-12,35.64,35.64,35.38,35.64,135622
2025-05-13,37.42,37.42,37.42,37.42,87196
2025-05-14,39.29,39.29,35.6,37.74,1085952
2025-05-15,36.98,36.98,36.98,36.98,76078
2025-05-16,37.05,37.5,37.05,37.5,194376
2025-05-19,37.4,37.5,37.1,37.5,59507
2025-05-20,38.25,38.25,37.83,38.25,50707
2025-05-21,39.01,39.01,39.01,39.01,11730
2025-05-22,39.79,39.79,39.79,39.79,21454
2025-05-23,40.58,40.58,40.58,40.58,10670
2025-05-26,41.39,41.39,41.39,41.39,8638
2025-05-27,42.21,42.21,42.21,42.21,12604
2025-05-28,43.05,43.05,43.05,43.05,17800
2025-05-29,43.91,43.91,43.91,43.91,8293
2025-05-30,44.78,44.78,43.03,43.03,860078
2025-06-02,42.16,42.16,42.16,42.16,95544
2025-06-03,41.31,41.31,41.31,41.31,25827
2025-06-04,40.48,40.48,40.48,40.48,37980
2025-06-05,39.67,39.67,39.67,39.67,47978
2025-06-06,38.87,38.87,38.87,38.87,21615
2025-06-09,38.09,39.64,38.09,39.64,212381
2025-06-10,38.84,38.84,38.84,38.84,59702
2025-06-11,38.06,38.06,38.06,38.06,41232
2025-06-12,37.29,37.29,37.29,37.29,170845
2025-06-13,36.54,36.54,36.54,36.54,38358
2025-06-16,35.8,35.8,35.8,35.8,7095
2025-06-17,35.08,35.08,35.08,35.08,46973
2025-06-18,34.37,35.78,34.37,34.37,675387
2025-06-19,33.68,33.68,33.68,33.68,126661
2025-06-20,33.0,33.0,33.0,33.0,440710
2025-06-23,31.35,31.35,31.35,31.35,89928
2025-06-24,29.78,32.91,29.78,31.71,820012
2025-06-25,30.6,32.4,30.12,31.83,277473
2025-06-26,32.0,32.9,31.15,31.33,46820
2025-06-27,30.7,32.89,30.7,32.88,96552
2025-06-30,33.4,34.52,33.4,34.52,158910
2025-07-01,36.24,36.24,35.01,35.15,265582
2025-07-02,36.0,36.0,33.39,33.75,285130
2025-07-03,33.4,34.25,32.07,32.14,140776
2025-07-04,31.85,32.5,31.05,32.07,63461
2025-07-07,31.4,32.69,31.0,32.11,32457
2025-07-08,31.99,32.7,30.65,32.0,22583
2025-07-09,32.0,32.9,31.1,31.42,45210
2025-07-10,31.51,32.45,31.0,31.22,71143
2025-07-11,32.2,32.2,31.0,31.75,35786
2025-07-14,32.24,32.24,31.07,31.57,16558
2025-07-15,31.57,32.1,30.96,31.93,48930
2025-07-16,32.0,33.52,32.0,33.52,29399
2025-07-17,35.1,35.19,35.0,35.19,269257
2025-07-18,34.22,36.94,34.1,36.94,145115
2025-07-21,35.51,38.0,35.09,35.92,556017
2025-07-22,35.2,35.2,35.2,35.2,53617
2025-07-23,34.49,34.49,34.49,34.49,3055
2025-07-24,33.8,33.8,33.8,33.8,927
2025-07-25,33.12,33.12,33.12,33.12,25133
2025-07-28,32.45,32.45,32.45,32.45,17643
2025-07-29,32.45,33.09,32.45,33.09,95494
2025-07-30,33.5,33.69,33.0,33.05,14824
2025-07-31,33.05,33.45,33.0,33.45,17210
2025-08-01,33.6,33.6,33.6,33.6,24953
2025-08-04,33.0,34.27,33.0,34.27,14652
2025-08-05,34.92,34.92,34.88,34.88,13276
2025-08-06,34.88,34.88,34.18,34.18,1591
2025-08-07,33.99,33.99,33.49,33.49,118
2025-08-08,33.49,33.49,32.82,33.0,32051
2025-08-11,33.0,33.0,32.41,33.0,4094
2025-08-12,33.0,33.0,32.34,32.34,4823
2025-08-13,32.5,32.5,31.7,31.7,24098
2025-08-14,31.11,31.11,31.06,31.06,3650
2025-08-18,31.21,31.21,30.43,30.43,14696
2025-08-19,30.61,31.03,30.61,31.03,53106
2025-08-20,31.49,31.65,31.49,31.6,16197
2025-08-21,32.0,32.23,32.0,32.23,24766
2025-08-22,32.87,32.87,32.87,32.87,2601
2025-08-25,32.98,33.52,32.98,33.0,46052
2025-08-26,32.34,32.34,32.34,32.34,47021
2025-08-28,31.7,31.75,31.69,31.69,13156
2025-08-29,31.6,31.6,31.05,31.1,41353
2025-09-01,31.41,32.2,29.63,31.16,49878
2025-09-02,30.15,31.52,30.0,30.17,27743
2025-09-03,30.0,30.68,29.15,30.18,34576
2025-09-04,29.95,30.9,29.2,29.53,30932
2025-09-05,29.57,30.0,29.0,29.61,16345
2025-09-08,29.61,31.07,29.5,30.27,8810
2025-09-09,29.8,30.87,29.26,30.0,47216
2025-09-10,29.51,31.0,29.4,30.5,23235
2025-09-11,29.9,31.0,29.5,30.6,20208
2025-09-12,30.26,31.41,30.21,31.03,16174
2025-09-15,32.5,37.23,32.5,33.97,898722
2025-09-16,34.0,35.99,33.6,34.87,149365
2025-09-17,35.0,35.0,32.2,32.85,112132
2025-09-18,32.8,36.18,32.26,34.5,132921
2025-09-19,34.49,35.95,33.0,34.79,65706
2025-09-22,35.45,35.45,33.01,33.13,36939
2025-09-23,33.0,34.6,32.49,32.86,572020
2025-09-24,33.5,33.9,32.0,32.2,57140
2025-09-25,33.01,33.06,31.3,32.03,36075
2025-09-26,32.03,33.03,31.2,31.38,23145
2025-09-29,30.55,33.0,30.55,30.93,57589
2025-09-30,30.55,31.95,30.55,30.96,28094
2025-10-01,30.1,31.09,29.2,30.55,38738
2025-10-03,29.5,33.5,29.5,33.1,85307
2025-10-06,32.51,33.79,32.5,32.52,37376
2025-10-07,32.1,33.0,32.01,32.26,35119
2025-10-08,32.98,33.0,31.0,31.57,46363
2025-10-09,31.52,33.43,31.01,31.92,29561
2025-10-10,31.2,32.6,31.2,31.49,14397
2025-10-13,31.01,31.51,30.01,30.18,48814
2025-10-14,30.87,31.0,29.85,30.22,71252
2025-10-15,29.75,30.91,29.63,29.91,40992
2025-10-16,30.05,33.02,30.05,30.94,141910
2025-10-17,30.53,30.9,29.4,29.71,75588
2025-10-20,29.11,30.5,29.11,29.9,25277
2025-10-21,30.2,31.0,29.0,29.82,16281
2025-10-23,29.42,30.0,29.42,29.89,11742
2025-10-24,29.63,30.0,29.5,29.94,24142
2025-10-27,29.56,29.99,29.02,29.79,37934
2025-10-28,29.3,29.92,29.27,29.8,31096
2025-10-29,29.8,30.17,29.43,29.55,18764
2025-10-30,29.19,30.47,29.19,29.79,31172
2025-10-31,29.33,30.0,29.0,29.14,19506
2025-11-03,29.2,29.9,29.19,29.3,11459
2025-11-04,29.39,29.39,27.35,28.26,25781
2025-11-06,28.3,28.9,28.03,28.5,27537
2025-11-07,27.5,28.8,27.05,28.16,36353
2025-11-10,27.17,30.69,27.17,29.22,28887
2025-11-11,29.36,29.37,28.4,28.94,12152
2025-11-12,28.93,29.09,28.41,28.87,7515
2025-11-13,28.25,29.49,28.0,29.02,111427
2025-11-14,29.49,30.0,28.6,29.29,22137
2025-11-17,30.0,30.19,29.5,29.9,25781
2025-11-18,29.7,30.0,29.19,29.73,38362
2025-11-19,30.5,32.0,29.25,29.87,123417
2025-11-20,30.5,30.5,29.16,29.73,84265
2025-11-21,29.17,30.0,28.3,29.13,96140
2025-11-24,28.3,29.19,28.0,28.24,32501
2025-11-25,27.33,29.9,27.33,28.79,168119
2025-11-26,30.85,30.85,28.2,28.88,110489
2025-11-27,29.94,30.4,28.31,29.8,66309
2025-11-28,30.1,30.66,29.3,30.21,15229
2025-12-01,29.9,31.48,29.19,29.75,22785
2025-12-02,29.02,30.87,29.02,29.69,41841
2025-12-03,30.59,30.6,29.26,30.09,36203
2025-12-04,30.92,30.92,29.95,29.99,34798
2025-12-05,30.79,30.79,29.55,30.14,27776
2025-12-08,30.01,30.33,29.26,29.99,34446
2025-12-09,29.8,30.84,29.8,30.28,118916
2025-12-10,30.9,31.52,30.21,31.02,36752
2025-12-11,31.29,32.01,30.8,31.07,26789
2025-12-12,31.91,31.98,30.95,31.17,38074
2025-12-15,30.6,31.99,30.0,31.39,97094
2025-12-16,30.66,31.64,30.66,31.01,23626
2025-12-17,31.26,31.47,30.55,30.57,23093
2025-12-18,31.75,31.75,30.19,30.2,26185
2025-12-19,31.06,31.06,30.5,30.6,15166
2025-12-22,31.08,31.48,30.6,31.18,38224
2025-12-23,31.7,31.7,30.65,30.86,26809
2025-12-24,31.0,31.88,30.9,30.99,25441
2025-12-26,31.61,32.3,30.9,30.94,66861
2025-12-29,31.56,33.89,31.5,31.87,80562
2025-12-30,31.4,32.46,30.89,31.66,14838
2025-12-31,33.2,35.0,31.29,32.72,113349
2026-01-01,32.72,33.09,31.5,31.7,34302
2026-01-02,33.0,33.0,31.5,31.81,18253
2026-01-05,31.7,33.3,31.4,31.61,21020
2026-01-06,33.25,33.25,31.1,31.31,7569
2026-01-07,31.3,31.98,30.9,30.91,17731
2026-01-08,32.01,32.01,30.8,30.8,19855
2026-01-09,32.32,32.32,30.9,30.91,22220
2026-01-12,30.91,31.5,29.2,30.5,15151
2026-01-13,30.63,31.87,30.5,30.5,21838
2026-01-14,32.98,32.98,30.47,30.54,33342
2026-01-16,31.15,31.2,29.25,30.63,8907
2026-01-19,30.69,35.5,30.18,34.18,299482
2026-01-20,34.29,34.99,30.3,30.52,99526
2026-01-21,29.2,31.8,29.2,30.52,38103
2026-01-22,33.5,33.5,30.51,30.86,12101
2026-01-23,30.86,32.0,30.5,30.56,23844
2026-01-27,30.56,31.54,30.5,30.67,37275
2026-01-28,30.51,31.5,30.51,30.76,18822
2026-01-29,29.4,32.05,29.4,31.34,84754
2026-01-30,31.9,31.9,30.0,30.59,107170
2026-02-01,29.3,31.5,29.3,30.52,14971
2026-02-02,29.45,31.58,29.45,30.2,46316
2026-02-03,29.25,31.49,29.25,30.5,27970
2026-02-04,31.26,31.44,30.25,30.7,106181
2026-02-05,30.15,31.14,30.1,30.5,46235
2026-02-06,30.49,31.0,29.5,30.54,20538
2026-02-09,30.54,31.6,29.78,31.26,19365
2026-02-10,31.51,31.51,30.71,31.02,18312
2026-02-11,30.55,31.3,30.5,30.63,45923
2026-02-12,31.48,31.48,30.41,31.01,25587
2026-02-13,31.39,31.39,30.16,30.63,27803
2026-02-16,31.5,31.5,29.65,31.12,64012
2026-02-17,31.51,31.99,30.8,31.04,31933
2026-02-18,30.26,31.35,30.26,31.03,23347
2026-02-19,30.3,31.24,30.3,30.58,30880
2026-02-20,30.7,31.28,30.61,31.07,318708
2026-02-23,31.19,32.48,30.7,31.78,283684
2026-02-24,32.45,34.9,31.5,34.5,300634
2026-02-25,36.7,40.38,35.5,37.16,747491
2026-02-26,37.5,39.0,35.2,38.48,193002
2026-02-27,38.5,40.35,34.05,35.54,270807
2026-03-02,35.5,35.5,32.25,32.95,129760
2026-03-04,32.1,35.35,32.1,33.87,57382
2026-03-05,34.79,35.32,32.32,34.32,51213
2026-03-06,35.34,38.48,34.98,35.88,227477
2026-03-09,35.87,35.87,33.75,34.56,38380
2026-03-10,36.8,41.47,35.03,38.85,418410
2026-03-11,38.85,42.0,36.76,39.41,428693
2026-03-12,39.8,39.8,35.1,36.18,504491
2026-03-13,36.18,39.0,35.6,36.76,130190
2026-03-16,35.72,36.53,34.2,35.23,207771
2026-03-17,35.26,36.1,34.11,34.33,85843
2026-03-18,34.84,35.0,34.0,34.26,59459
2026-03-19,33.9,34.77,33.5,33.57,83212
2026-03-20,33.31,34.0,32.91,32.98,61193
2026-03-23,32.9,33.9,29.1,30.01,347825
2026-03-24,29.8,31.54,29.8,31.19,115420
2026-03-25,30.8,31.95,30.8,31.02,66919
2026-03-27,31.02,31.78,30.4,30.46,76320
2026-03-30,30.9,32.0,28.56,29.75,97814
2026-04-01,30.25,31.79,30.0,30.23,99485
2026-04-02,30.24,30.51,29.8,30.16,56852
2026-04-06,30.0,30.7,30.0,30.33,47909
2026-04-07,30.33,30.5,30.0,30.25,28681
2026-04-08,31.2,31.49,30.3,30.4,101867
2026-04-09,30.06,30.93,30.06,30.72,16407
2026-04-10,31.41,33.85,30.57,33.49,204306
2026-04-13,33.01,34.83,32.58,34.04,69462
2026-04-15,35.05,35.85,34.06,35.04,65903
2026-04-16,35.94,35.94,34.3,35.06,35054
2026-04-17,34.4,36.45,34.4,36.05,82085
2026-04-20,34.4,35.99,33.2,33.39,65288
2026-04-21,33.0,34.18,33.0,33.01,16328
2026-04-22,33.01,34.49,33.0,33.47,38074
2026-04-23,33.68,33.78,32.6,32.79,27930
2026-04-24,32.11,33.54,32.11,32.6,11285
2026-04-27,32.6,32.96,31.2,31.89,30552
2026-04-28,32.09,32.15,31.5,31.53,14862
2026-04-29,31.52,33.7,31.52,32.12,25471
2026-04-30,31.31,32.94,31.31,32.32,21140
2026-05-04,32.34,33.17,31.57,32.05,19490
2026-05-05,32.07,34.4,31.9,32.4,100401
2026-05-06,32.4,32.96,31.9,32.11,23224
2026-05-07,32.0,32.68,31.9,32.23,17411
2026-05-08,32.0,32.4,31.35,32.1,63901
